3.389939803174490862e+01,1.939816492401893981e+02,4.532354953467114456e+01,2.129586371638046387e+02,8.016951113005728757e+01,6.321293598858363083e+01,7.745258024951743892e+01,7.201839987385498887e+01,1.081956998683601654e+02,1.434010807115990360e+02,9.983651641999174444e+02,7.643508575392532123e+01,4.507823145582428737e+01,9.427152506087908534e+01,4.759739716520702757e+01,3.253781505395314610e+01,1.105184657197809770e+02,9.043148701918080690e+01,5.664746050201956962e+01,4.000742626459933859e+01,1.136292132552981258e+02,3.098697070427266453e+02,4.529659801162252108e+01,2.529218159124384044e+02,4.321246108794302927e+02,5.489885623941792403e+01,3.804453884362335003e+01,5.329931271942524518e+01,7.172678081334478861e+01,8.960237791304373900e+01,6.582854263363290670e+01,1.957535728941069237e+02
3.989291271522138516e+01,3.879698707736660594e+02,7.528319123739962038e+01,3.818707764991333420e+02,1.285260824470908290e+02,8.605940283712779149e+01,1.097773988949317641e+02,1.355602175874354600e+02,1.632164950935251113e+02,1.860081592077957851e+02,1.378481489687271733e+03,1.098583722136487069e+02,5.940359004621871719e+01,1.587136444306959220e+02,7.249292441670958453e+01,4.521196873767586766e+01,1.541688535184855766e+02,1.141060918227053520e+02,6.134102359623018685e+01,3.615116828078052436e+01,1.869508580221838088e+02,5.375145214396617348e+02,4.411549659822722447e+01,4.411491130145975603e+02,6.746133729868955697e+02,8.519105798825648890e+01,4.663453976724913019e+01,6.286631372181163613e+01,1.000660108390721206e+02,1.609278972664785670e+02,5.279530899802484356e+01,3.383638572313602708e+02
9.065546400402874738e+00,4.740338327498339765e+01,1.141028316091989048e+01,7.704559644599358137e+01,4.864254776744062525e+01,1.071829507269626269e+01,3.182436310940143898e+01,4.199092119164882320e+01,3.999374916246223677e+01,1.045786672526559755e+02,3.741412267701254564e+02,3.496108628049114486e+01,1.996023900905185400e+01,3.228369008180884236e+01,3.809389876165614908e+01,2.396609985816969157e+01,3.101309471223294167e+01,4.008932013382293746e+01,1.361762025001718612e+01,5.591440848508328010e+00,2.684242785592309488e+01,1.431474934596259629e+02,2.891303049241738066e+01,6.550542314269127075e+01,1.070686392342950484e+02,3.888599112603852603e+01,2.351819901207377228e+01,1.137714319215578662e+01,3.105168681581490020e+01,2.867363767879371395e+01,2.148962593425215672e+01,5.153138203107820203e+01
8.819140298817298884e+00,4.344632838095024852e+01,8.447616757963814393e+00,1.006653500596031421e+02,6.292223018233691079e+01,1.281517580087787245e+01,3.903929896198108906e+01,5.641891233374925463e+01,4.101057890163847475e+01,1.385912277187159134e+02,2.751647196028592930e+02,6.230657159602165507e+01,2.586597773513315346e+01,3.813501703266688736e+01,5.439262570572383737e+01,3.128542795206637805e+01,2.649993007987688642e+01,5.293871656466363618e+01,1.122734391036110502e+01,3.553080789885902924e+00,1.951676555338302066e+01,1.597914772023543435e+02,3.560012333299653875e+01,3.325387367552001905e+01,9.021425439203656538e+01,4.267645041904955860e+01,3.070847594816897441e+01,8.950707514225491934e+00,3.268523704171711586e+01,3.052528097575971699e+01,2.546295478173437488e+01,3.560242498331243866e+01
1.640432279562549311e+01,8.935991264814906572e+02,2.069510191228237659e+02,7.747522714327077438e+02,2.458892219542819930e+02,7.675825602494545308e+01,2.268147935247074827e+02,3.303613047308025443e+02,2.622135366458443286e+02,2.361573679436520763e+02,1.926754600163519171e+03,2.252433020522472589e+02,7.970965453978998028e+01,3.464486401376706795e+02,1.259787272280674557e+02,4.174922593863315257e+01,2.555761867060082864e+02,2.164739331812881176e+02,8.992552596094881778e+01,1.420801810508840290e+01,3.147364183822954260e+02,1.002510027649579229e+03,8.736858170665080081e+01,9.244720611522092213e+02,1.242269952470555609e+03,1.685742676712746402e+02,9.520932610373016303e+01,4.612246360689513125e+01,1.455990955816605208e+02,3.589707882598547712e+02,4.972935942347245941e+01,8.640271150737354446e+02
1.885456336312466563e+00,7.514916962547495416e+01,1.183941849783007605e+01,3.896735278736760222e+01,1.830279329787120446e+01,4.989602665504587975e+00,1.370246314867620008e+01,1.859679365528183581e+01,2.126284160889280628e+01,2.096968382780623230e+01,1.002167905809946973e+02,1.713134168229291987e+01,4.350262882493099781e+00,2.113516346923663747e+01,1.156406338579276571e+01,3.506965755825034670e+00,3.086072651609106998e+01,2.069786488791848811e+01,1.118564217905388247e+01,2.034885634356709438e+00,2.117801273306932330e+01,8.888204458834471211e+01,7.686594214708689421e+00,8.780420211320148383e+01,7.944413785777362591e+01,1.035634521905630834e+01,5.759622484225021211e+00,5.296111801920850404e+00,1.167153241871897329e+01,2.200500029099997690e+01,5.419524676677879960e+00,6.698632244705966343e+01
4.098580320958849360e-02,1.091620089819739237e+00,2.072914442494336595e-01,6.370126522219712317e-01,3.274832105172401087e-01,1.020042256833088856e-01,2.516827322440507997e-01,2.882267148089707742e-01,3.654615535397764958e-01,3.642784411583406268e-01,2.128118583374839723e+00,2.670782340542862676e-01,8.344380076890231535e-02,3.059922074452132157e-01,2.142594627148335651e-01,5.055355450047968602e-02,4.599925571493011511e-01,3.002192090236475153e-01,1.346292330825146766e-01,4.239213527936112891e-02,3.010319768400166462e-01,1.336837817482167790e+00,9.198825109137681588e-02,1.068383069077617264e+00,1.161104212738909292e+00,1.693480007340181226e-01,1.313849186310419026e-01,5.996066649347367439e-02,2.017663079507429902e-01,5.034495027600139894e-01,6.007845733735902444e-02,8.877488323373793344e-01
2.264460769980875341e+02,1.616658426272254474e+03,2.795651241664704685e+02,2.788316798792136979e+03,1.296268255905623846e+03,3.220868850735604383e+02,1.018808249465421682e+03,1.442630935208528399e+03,1.010795436160400300e+03,3.885077262464978048e+03,7.786613405573538330e+03,1.551557474426037516e+03,6.656358455121741144e+02,1.039158194352982036e+03,1.431105368820291233e+03,8.825113812378552893e+02,7.324501337764614846e+02,1.076738831544314735e+03,2.802873524876555962e+02,1.076673007959335564e+02,6.113891783242108886e+02,3.756813672725451852e+03,9.026048519801408929e+02,1.341508754807308833e+03,2.463057467321622426e+03,9.093840742840067151e+02,6.685878572527153665e+02,2.107253318567040594e+02,5.948220628933486296e+02,8.576182277542189922e+02,4.407728163421630256e+02,1.292732542841807344e+03
4.074369538440780047e+01,4.429439628972016862e+01,3.311859713385319282e+01,1.515404268421351901e+02,7.890703758101034282e+01,8.979619076899656704e+01,5.257993439083905685e+01,5.749048394118653960e+01,9.775268976068183235e+01,1.181230745632565231e+02,3.678427635595875245e+02,7.234563002559845302e+01,9.381751214879599843e+01,4.075523519131048715e+02,4.197165187678935894e+01,5.799070800330548536e+01,9.896162789482717415e+01,1.210621391322015086e+02,1.453907850814270262e+02,5.221237808509511069e+01,5.183188972575378983e+01,1.158252164145559163e+03,2.972253265317887028e+01,1.978795760355113487e+02,5.132790729492676292e+02,6.404265037974931829e+01,6.549405708769739931e+01,1.091585730633686779e+02,6.011483458223516152e+01,1.060225361316159649e+02,6.114305014470780719e+01,3.357956606267360655e+01
3.781714513416174839e+01,7.815385364462761686e+01,2.446118190681891846e+01,2.811635882874032291e+02,1.122694536677721686e+02,1.165149854067347235e+02,7.586303383670072265e+01,6.909110612260900552e+01,1.470669150668497309e+02,1.888339019774245742e+02,5.029589495189384820e+02,9.563585624982198397e+01,1.264955350104674352e+02,7.770507857836539642e+02,6.323945058723301571e+01,1.008044318768972971e+02,1.285573329107840834e+02,1.636584013399408377e+02,2.049808385303142586e+02,5.842879755664952768e+01,8.180406358684064116e+01,2.084802762663492103e+03,2.612593765090758069e+01,3.612066714733410890e+02,8.049085086638257280e+02,1.108455143999156860e+02,8.703318489587221052e+01,1.452100541665267031e+02,9.058023410292042854e+01,1.232498148875835540e+02,7.569078590383220728e+01,4.365306458097198572e+01
1.744834060460259195e+01,1.053724090166979011e+01,9.231920945676421297e+00,5.100375405486142455e+01,5.236784075346017886e+01,4.628033767767261963e+01,2.951484446852610333e+01,6.058280958248027304e+01,3.494269444351909470e+01,6.761437721451862615e+01,1.417499454399237777e+02,4.104839188277200179e+01,4.023242061758788424e+01,1.293859193118206861e+02,2.626995629552941125e+01,3.320862568286498373e+01,4.426236742331528973e+01,6.022722744217524848e+01,5.836599867529357510e+01,1.367925911705696507e+01,1.265223991685393479e+01,3.882635570657241146e+02,2.418721980378225211e+01,4.375324178461276148e+01,1.263996466445481133e+02,2.011315994233157767e+01,6.957109406156411069e+01,3.912086297836685844e+01,3.476509175208492763e+01,5.963785968929511938e+01,1.888188796229510658e+01,1.168340272171524141e+01
1.429681079292148027e+01,9.151328210497396753e+00,6.394758065462155194e+00,6.655280186159113498e+01,6.744024114056237806e+01,7.115298558131817686e+01,3.298158527784329408e+01,6.516486537052703909e+01,3.547760444041501415e+01,9.197757735975922344e+01,1.196766277036529544e+02,6.915946040980529119e+01,5.320596534592004190e+01,1.439380710274968180e+02,3.396701126528866865e+01,5.267233961741256110e+01,5.012217342463955561e+01,7.741854459616280337e+01,5.384082994696761659e+01,1.468047799556085486e+01,9.664784570116191631e+00,4.369090001576101940e+02,2.752544459638714258e+01,2.379830532921509345e+01,1.089237863734310992e+02,1.925102375157732482e+01,7.181537970783838887e+01,3.849435045596135296e+01,2.976016468219661348e+01,7.269905566654325924e+01,1.725182482806984652e+01,1.221636533324943841e+01
3.683865778123190893e+01,1.669650693091629705e+02,4.776314706580089364e+01,5.840385980073888277e+02,1.840105061330048102e+02,1.561000599398593351e+02,6.618107792021756097e+01,9.849084370361738650e+01,2.475720695113873546e+02,2.971644364691043734e+02,6.885110833744043930e+02,1.051351968715673024e+02,1.842755119253511964e+02,1.739715865322224317e+03,9.518537377673312960e+01,2.501806584958730468e+02,1.342492415988573384e+02,3.165662514610477274e+02,2.840719627147872757e+02,8.459206368227457062e+01,1.378840802514327777e+02,3.907713480057246670e+03,2.536258513439371853e+01,8.006093266231844154e+02,1.501359004193277997e+03,2.607825371320794829e+02,1.354812493504910549e+02,1.950214115879082613e+02,1.001539829377082356e+02,1.839260183542555467e+02,1.158960653877939393e+02,6.209048710805748073e+01
4.638177668781085394e+00,1.483729538024748429e+01,3.543984738532766521e+00,2.918949398385871774e+01,1.142232226436673770e+01,8.107845409839326223e+00,5.111641755776892282e+00,7.114488861706810496e+00,2.061610656998873736e+01,3.072871414674106560e+01,3.092919400115707518e+01,8.250448039456372840e+00,1.103500360851708528e+01,9.874556444022195478e+01,9.566958862033851929e+00,1.563107078904038616e+01,1.205432506408413751e+01,3.035520221136431473e+01,3.137060645505604484e+01,7.765138792296350623e+00,9.600101614069643574e+00,3.328279190884302352e+02,2.002413694865690097e+00,7.189266055041026959e+01,9.699457473093517024e+01,1.753777281194528825e+01,6.707651119244437687e+00,2.093452107087715319e+01,8.192572149920007263e+00,6.418125215051126098e+00,1.123063917390977373e+01,4.514992338146533335e+00
7.120427617062587144e-02,2.166905261036436992e-01,5.819166642927510458e-02,4.749742036360596886e-01,1.959586120330780723e-01,1.801143962959594891e-01,1.039458550875979603e-01,1.465667118107150668e-01,3.414281074499764812e-01,4.337418022978733467e-01,7.018550878785397851e-01,1.776223819657440084e-01,1.683667006782049169e-01,1.389445007848497449e+00,1.661037047244077192e-01,2.547102009530088362e-01,1.982593196970971472e-01,4.377867173702122972e-01,3.575055536058857064e-01,7.865326738198782919e-02,1.494921367673548163e-01,4.616456661559074526e+00,3.531344490412171438e-02,8.825434894591984714e-01,1.400443269865321083e+00,2.614216836741483641e-01,1.584357706036415292e-01,2.551645943504413649e-01,1.219684909762532160e-01,1.408722102101458429e-01,1.214325236970667798e-01,6.134014627827898136e-02
3.290899105915291898e+02,2.744709085709018836e+02,1.106122869426883284e+02,1.800597199031059063e+03,1.454126299352869410e+03,1.912435662414029366e+03,8.754185750878707495e+02,1.488331247029222141e+03,8.844230773368134351e+02,2.533476302196736924e+03,3.300291121576587557e+03,1.690662416135240392e+03,1.382603781361860229e+03,4.169225005888573833e+03,8.501592858709958591e+02,1.440410507661907786e+03,1.093839440375330014e+03,1.596558772091637138e+03,1.343003114372410209e+03,3.310656010438053727e+02,2.902432945729410108e+02,1.104221124017246439e+04,6.878923709298863969e+02,9.834455774737299407e+02,2.964328459127871156e+03,5.530065000738354684e+02,1.651457601031945160e+03,1.021263519604634212e+03,4.969025847122045434e+02,1.646508809809282866e+03,3.521222093543344158e+02,3.237160374084301679e+02
2.979897622926776890e+01,6.050569721472396623e+01,5.544465434184377273e+01,3.792899287559683330e+02,1.090734563682849085e+02,2.082192088776972412e+02,3.463817756098193001e+01,5.381616730540366689e+01,1.767156703315802133e+02,2.429215170571741851e+02,2.395673701001203426e+02,7.909170147109779236e+01,3.611051746307177979e+01,3.179002849869240777e+01,6.678425200356184632e+01,2.169811449880914367e+01,6.813983961577505966e+01,7.889849659391062175e+01,4.415929837682936210e+01,8.732698490788341417e+01,6.278645783096024502e+01,4.349828021784981047e+02,1.280339601268175898e+02,6.042525429330638076e+01,3.747488368941477006e+02,4.476035289943008166e+01,4.753979124516349231e+01,4.766512932294712073e+02,5.073377145112619502e+01,6.261108848983277397e+01,5.837028558690365543e+01,2.700881967006862183e+01
2.588195084018207837e+01,8.991464272296634874e+01,8.756449290979993805e+01,6.894114984981072212e+02,1.592646361942939564e+02,2.724070599107772637e+02,4.776380945760062957e+01,7.857673932701270303e+01,2.493376658854954542e+02,4.150181248375480436e+02,3.282982469653405246e+02,1.312804753012332242e+02,4.678068342371214072e+01,4.286356543829308663e+01,1.096503604619253309e+02,4.237492615306702248e+01,1.106168939757830287e+02,1.069737766866659427e+02,4.112602790174917544e+01,1.522062886039310570e+02,9.689117359001960494e+01,7.771490884061946645e+02,2.191403299427923059e+02,1.215544649832656603e+02,5.963941994839204881e+02,7.709135838912833094e+01,5.239395278823274538e+01,6.369211163201584895e+02,7.714722727893914112e+01,9.170263571080009513e+01,5.633243838480228050e+01,3.574727253704744356e+01
1.065727055430122228e+01,1.601824905044402314e+01,1.416449455998725604e+01,1.335266197923170921e+02,5.122185413748954375e+01,1.307882534230766680e+02,1.727173852297369550e+01,3.102368024394878177e+01,6.723256721548087000e+01,7.483045363327900645e+01,9.298911995655588214e+01,4.666623471415991986e+01,1.436025394676912903e+01,8.942261816834120580e+00,2.197705829162145719e+01,8.203120338484451324e+00,2.818430665514541289e+01,3.861237378651270546e+01,1.352333304532199776e+01,2.140688162842305076e+01,1.552280698847729390e+01,1.533717453772674446e+02,6.258170367046280802e+01,1.338141584463839173e+01,9.109514480899518674e+01,1.488383157696961590e+01,2.597635122375566397e+01,1.669790868302850129e+02,1.657704110617624593e+01,2.718970161011374387e+01,1.758972181736487528e+01,7.067698273111587604e+00
7.476678813276105728e+00,1.994198485223312645e+01,6.465000863683758148e+00,1.735098260403248389e+02,6.482115958067845440e+01,1.976887853378610203e+02,1.874515000865356029e+01,3.816107301024371878e+01,6.731952430979092128e+01,9.343362250640539912e+01,7.688639524727447849e+01,7.987777472540740575e+01,1.760159623212485513e+01,4.403639172200899843e+00,2.875337195786114819e+01,6.756951297460696004e+00,2.885186742908549107e+01,5.301002772534194918e+01,1.472230447241605944e+01,1.620552377801410415e+01,1.222324305340911188e+01,1.711541845497685586e+02,7.046914287809468647e+01,5.756217695321257821e+00,8.567100505154832035e+01,1.479542112697987299e+01,3.044132046167456096e+01,1.554151070830586718e+02,1.812248589710843660e+01,3.052527791659380441e+01,6.219465876967766427e+00,4.108784417475505713e+00
2.783492701047080331e+01,1.548963593955679414e+02,1.770282173132694652e+02,1.409185955244726529e+03,2.724635957594574052e+02,4.023274118073263708e+02,6.611528054497627238e+01,1.486598898323406672e+02,4.061163582030670227e+02,7.032264424924680952e+02,4.492589607303686989e+02,3.223751585317884292e+02,5.641313101799286045e+01,4.293042872052557613e+01,1.935261327291060525e+02,3.542820904767562240e+01,1.699406024170213811e+02,1.283917643129124144e+02,4.288914440254485783e+01,3.613681346114412349e+02,1.663186522610423310e+02,1.455676645635433488e+03,4.946003196737945018e+02,1.403430652221991863e+02,1.154287269229294679e+03,1.663725317044888357e+02,1.127925032013425835e+02,7.961102865525722336e+02,1.143325338485087030e+02,1.795664538584069874e+02,7.940446763675191733e+01,8.974070508275235625e+01
3.949034070779921191e+00,1.019926685132465849e+01,1.077763923427265880e+01,7.046528225567091397e+01,1.577503978398139672e+01,2.497387698648298127e+01,4.398319136229031479e+00,1.024366864741306671e+01,3.299827892305157917e+01,5.717236349223340852e+01,2.010903295291532089e+01,2.137139211863503618e+01,3.154037089785249215e+00,3.958433476486222347e+00,1.669122371984656539e+01,3.416165459733548460e+00,2.244487916015001971e+01,1.353176102737142550e+01,5.361276941070878266e+00,2.543925701940930040e+01,1.085685839591851121e+01,1.245328964016330673e+02,4.034132858699922508e+01,1.515207686355100769e+01,7.611533090917954780e+01,1.088415918695476314e+01,5.403687168853649858e+00,8.446354708693019120e+01,1.324471793450667256e+01,1.081696068648277986e+01,8.013397351366329247e+00,7.990153198668083157e+00
4.894427416265093034e-02,1.602921259591122138e-01,1.680784339270245953e-01,1.148362988057102907e+00,2.685853049215111144e-01,3.748157814152349721e-01,9.304470001853404337e-02,1.933870085064897104e-01,5.536076787022309320e-01,7.657743034485351430e-01,4.627836415559279382e-01,3.221219491646034605e-01,6.655062497202035576e-02,7.551899661999117441e-02,3.024960326918428866e-01,6.887217874439478804e-02,3.218290320410474026e-01,2.581401906880810837e-01,7.200690656434020898e-02,2.215575957529561657e-01,1.766016167221786115e-01,1.760488234202719715e+00,4.374136453898169186e-01,2.076051399015746424e-01,1.068061493951002694e+00,1.773693875505756579e-01,1.564759492489373738e-01,8.759752365971099630e-01,2.043985409619084870e-01,2.618948218919133208e-01,1.126305601428215092e-01,1.078865187542831366e-01
1.791076297845426950e+02,5.431344092659239777e+02,2.483866020127573790e+02,4.799778529281840747e+03,1.423845465154593967e+03,5.420405320070300149e+03,5.106719485418595923e+02,9.070258132318945172e+02,1.683066209047022994e+03,2.520510832248851784e+03,2.135044655351252459e+03,2.101143147682344534e+03,4.453192099725657158e+02,1.279330724817625509e+02,7.596580903137793257e+02,1.678279487843812774e+02,6.868803201372434160e+02,1.333559110254212555e+03,3.108251367458666437e+02,4.972255113934980955e+02,3.748186715842871308e+02,4.252823973078609924e+03,1.803794797630752100e+03,2.466897973224149894e+02,2.300035862731901943e+03,3.954321384803661203e+02,6.432926194886130133e+02,4.205788636151461105e+03,3.383800036047624076e+02,7.290649604961990917e+02,2.073801476014737943e+02,1.322903011921545158e+02
3.842391983568126079e+01,4.972963399494063310e+02,4.698262138808124178e+01,4.958083637915570421e+02,4.755264948643261391e+01,1.378809337422253236e+02,4.414242087811505399e+01,7.764687669581384455e+01,6.333015331658560854e+01,2.162444175188107636e+02,2.877532717030674689e+02,9.863345594014673168e+01,1.009058687505128518e+02,4.586988076826685301e+01,2.923019431622596542e+01,3.292611731803903297e+01,1.137427111045601009e+02,6.720382153684394666e+01,9.419293283267954564e+01,6.245805540507636522e+01,3.572751144675169854e+01,1.135574074937650948e+03,2.593467145911055383e+01,2.851921372016100804e+02,2.063770144914182652e+02,1.208687386995924982e+02,4.923849747802884025e+01,1.610887514776157730e+02,1.214110793132821442e+02,5.640201661667197897e+01,5.276074428632972513e+01,1.028236450284000796e+02
3.770860997141700466e+01,9.798940413907052971e+02,7.697828873486925261e+01,8.845845506309018447e+02,7.431437813405285908e+01,1.759502731344202857e+02,7.176915647241375495e+01,1.266918965918385567e+02,8.598828989735102368e+01,3.115293999984962738e+02,4.303741488131760775e+02,1.295430553150911521e+02,1.367285229652049736e+02,6.163931033274836579e+01,3.825212766665770658e+01,4.951159466511966656e+01,1.305447574608537309e+02,7.336597170058514905e+01,1.439413260845688001e+02,7.832511821791196382e+01,3.980032764470200135e+01,2.037567531176310240e+03,2.385735014689876365e+01,5.170978892888915652e+02,3.038253002454765124e+02,2.140440828940334939e+02,6.251537883552884267e+01,2.150602060793524970e+02,1.722909302911018870e+02,7.338917516517649631e+01,4.757701053057866858e+01,1.674292726702126402e+02
1.416836017244566293e+01,1.233452340310379753e+02,1.291500962268928632e+01,1.761088255172215327e+02,1.873597237975656071e+01,8.157228144295567063e+01,1.974514322611407025e+01,5.458158462331241623e+01,3.836789528496517931e+01,1.506570451134201107e+02,1.017763685261551529e+02,5.856397119924888273e+01,4.411394053121486536e+01,1.791250362017109410e+01,1.994903409034339248e+01,2.264175353963794635e+01,4.050994649333490116e+01,3.424014818333878196e+01,3.547358868414468702e+01,2.393920458212206626e+01,9.154504853498087513e+00,3.983357983184492923e+02,1.551042204915556688e+01,6.490922551201430224e+01,5.415924083949033729e+01,3.470321177489379494e+01,3.057110238471637587e+01,5.897938573934350615e+01,4.928380787436489641e+01,2.605070459976246156e+01,1.993740069636456980e+01,3.080559209718557767e+01
1.004484736086376984e+01,1.062352337413525731e+02,7.087211229280957703e+00,2.313805281939122551e+02,2.405237785777852011e+01,1.235115768315202871e+02,1.962170302998829641e+01,6.212547218014410788e+01,4.425234487560725682e+01,2.045005230350300280e+02,8.190638981141148633e+01,1.078854676543450068e+02,5.950774458020921998e+01,2.332217663184907863e+01,2.771932410427510618e+01,2.868005001831538081e+01,4.505797158644686107e+01,3.898399061060609938e+01,3.088402050210381944e+01,3.009623560718089763e+01,5.980283556483994012e+00,4.472149753255177984e+02,1.765100069024842711e+01,3.557562442364049105e+01,3.921948174693247324e+01,3.112897674532286985e+01,3.806990851611656268e+01,5.679118992099091656e+01,5.390524557461192501e+01,2.945642910496414046e+01,1.941090586126447093e+01,2.709070169813567475e+01
3.302918133385931299e+01,2.204266321898909155e+03,1.893804781881089241e+02,1.773113160259762481e+03,1.529601623390829559e+02,2.549980896054521793e+02,5.648311775503016463e+01,2.749816458945587669e+02,1.039558241009281687e+02,4.570142622574355187e+02,7.227811993963617851e+02,1.625353718181895317e+02,1.850269653941675188e+02,8.492432242767176831e+01,4.874047689927859039e+01,5.976122642198130563e+01,1.477118347295719332e+02,1.353634150743872908e+02,3.495472872882638740e+02,1.126753196179860197e+02,5.314845242862173791e+01,3.822512658108945743e+03,3.829443082714624325e+01,1.129823723503975543e+03,4.860417741898480131e+02,5.388460819947093796e+02,1.250977175083099553e+02,2.778580491461844417e+02,2.437676392021576248e+02,1.163147917202318098e+02,4.478727835169099336e+01,4.017177052046848758e+02
3.760205339869301611e+00,1.877095739976806783e+02,9.968279882214160281e+00,8.945731284510296177e+01,1.310900571822286764e+01,1.214197399503067309e+01,4.450838501134732006e+00,1.742706021706428743e+01,1.029478304975116032e+01,5.221300731811355433e+01,5.527123648188704408e+01,1.432623365579516950e+01,1.020078875657233830e+01,5.607417524839944711e+00,5.461226553973952846e+00,5.157243487529947323e+00,1.389525348910666125e+01,1.432419170699208166e+01,3.634868239448446303e+01,1.238209664761069817e+01,5.562374813289816089e+00,3.271799312823159198e+02,4.001829334906786606e+00,1.013173787103326191e+02,2.626598056686003346e+01,3.462934497331794148e+01,6.762457436267079736e+00,2.729613700740986459e+01,1.622077882747342059e+01,4.944509004983462575e+00,6.182318715925585906e+00,3.097935115194790257e+01
6.739407186784489301e-02,2.727416256517462667e+00,1.669016339076254130e-01,1.484158092328041079e+00,2.317328659507657262e-01,2.637962055578333409e-01,8.176884111411178435e-02,2.931817215704378143e-01,1.812533508715895303e-01,7.797915546862937974e-01,8.870776741407085941e-01,2.841786445713535003e-01,1.667220784526350086e-01,1.019142494087650758e-01,6.517384902182209172e-02,7.504599655614466180e-02,2.012306668572025892e-01,1.780842180768297534e-01,4.393289895664899691e-01,1.222327548260375429e-01,8.575240329659281069e-02,4.600674374041451742e+00,4.001570886778296754e-02,1.245162528569620841e+00,4.677812022393764146e-01,5.116850743716840899e-01,1.446606799698503254e-01,2.354191893300558724e-01,2.776454345878820451e-01,1.255661334488388237e-01,9.871446769723067616e-02,4.069645836634970815e-01
2.360639975224471243e+02,4.075295117227859009e+03,2.339449938909832554e+02,6.323357949070076756e+03,5.182038129481684336e+02,3.379381397207844657e+03,5.017909703648676327e+02,1.559255634753297045e+03,1.104212496389704256e+03,5.703995938488998036e+03,2.302574131720899459e+03,2.739830875300189291e+03,1.553923968648053233e+03,6.023395529550580250e+02,6.970021461959478302e+02,7.812640726797839079e+02,9.910968014816620553e+02,8.205709693274524170e+02,7.262328587279163230e+02,6.977756864143281064e+02,1.540148397737768278e+02,1.117331828545558346e+04,4.029175766670582561e+02,1.444277541304766146e+03,1.054532634122156878e+03,1.042531499126818744e+03,8.196501218094339265e+02,1.523266829075922260e+03,9.596519393474316075e+02,6.698288640573566681e+02,5.008492532156138282e+02,8.603828622549214060e+02
2.236021264299622402e+01,3.229562892122784490e+01,4.571929793427661082e+01,1.488204656184988721e+02,1.916726964280246364e+02,7.130388071073576839e+01,6.784645761511265505e+01,8.031646200879499986e+01,1.351463605691284613e+02,4.514076178147611529e+01,8.970415288530950875e+02,3.919470424264550701e+01,5.873819300767690521e+01,2.248247042216121656e+02,8.581209078734173090e+01,8.633161938820138914e+01,5.601825040442959391e+01,7.725064736914292496e+01,8.871958205190308888e+01,9.577812364532516654e+01,3.309687919699386072e+01,1.987396162423812598e+02,2.144986633858280456e+01,2.413757460857410422e+02,5.390681992176689619e+02,2.572825455370922398e+01,4.715871299666678595e+01,5.794056025654271735e+01,8.138713614289389398e+01,1.393212935168947979e+02,9.769784970752716902e+01,2.432741066241865369e+01
2.687712705249209222e+01,5.777198931286446992e+01,6.737269328628597975e+01,2.577840794749562860e+02,3.240201686902172469e+02,8.838904988057151968e+01,1.101824886286216696e+02,1.323565877903650403e+02,1.863105793556652827e+02,7.609598280009862492e+01,1.242387277279317914e+03,7.752836575305197186e+01,7.867376466916010713e+01,4.083894237315636246e+02,1.395444178451394919e+02,1.325843762473669756e+02,8.785737494889332311e+01,9.653449398736835008e+01,1.522631992825496354e+02,1.572624445807112465e+02,5.323250702666089040e+01,3.226279698944492793e+02,2.474181450281928107e+01,4.393671583875254782e+02,8.397088757639512551e+02,3.872983556349377920e+01,5.509163824570843104e+01,8.356152761120755201e+01,1.125037235629414880e+02,1.966661940519984171e+02,1.426992674834882848e+02,3.161177631630946649e+01
8.308528132849065884e+00,6.924934463044468913e+00,1.268995603443496023e+01,4.939339888471172202e+01,6.027743344660345315e+01,3.632001103771881390e+01,2.841514700516830771e+01,3.402228934905750179e+01,5.379344817812438606e+01,2.685965387131797044e+01,3.347704268482216321e+02,1.820983515684734755e+01,2.502709535891556314e+01,7.828670106160700470e+01,2.568223004053272973e+01,5.342424031513906613e+01,1.860409136876528180e+01,2.954087209879638820e+01,3.023664275430250470e+01,3.217479258365632688e+01,8.454992933957123924e+00,1.100067869216030942e+02,9.418413622587719303e+00,5.062988893209070085e+01,1.329314994971234967e+02,5.920356799152632021e+00,2.762158561590145212e+01,1.637941109617778679e+01,2.858221385993932273e+01,5.427488889624037682e+01,2.659564509361673856e+01,6.727325359788719261e+00
2.546540683265580363e+00,5.544919567834297069e+00,1.046583540337414497e+01,6.216094064863059998e+01,7.194729638681204165e+01,5.596697525897652525e+01,3.866424281250791495e+01,4.544883136893203357e+01,5.563932285245585518e+01,3.687503045225450649e+01,2.423741504844394115e+02,1.037516008410637802e+01,3.246170502512650557e+01,9.289847069072021668e+01,3.297955627652297750e+01,8.473109743476940992e+01,1.529784462957455737e+01,3.828320952487727169e+01,2.629039068464121698e+01,3.571137909382450459e+01,6.786145370599383497e+00,1.279882625264664995e+02,1.055315176287393264e+01,2.750898417219980274e+01,1.146465264630740677e+02,3.488164725355423990e+00,3.510880885395263817e+01,1.502046678052347950e+01,2.787133235514221852e+01,5.291420249370379736e+01,1.731647736517644987e+01,4.099781157175965696e+00
2.612391287555102082e+01,1.354257866334423568e+02,1.737696536055757690e+02,4.806674217595557366e+02,7.066565064442049788e+02,1.194684544342623411e+02,1.080829163817366663e+02,2.793078216509052822e+02,2.889190545986905931e+02,9.856259709527328994e+01,1.744507539781818650e+03,8.457838476554476870e+01,1.003292748590840660e+02,9.190993435123600648e+02,2.361087910026558916e+02,2.976624241775709834e+02,1.383562229950583742e+02,1.556088522780451342e+02,3.709415912137186524e+02,3.449474570401299616e+02,8.585070289893931772e+01,5.939273551023208029e+02,4.398769753106757463e+01,9.885815370311638617e+02,1.557530785789426091e+03,2.928772100036902515e+01,8.820356621037885247e+01,1.253749138901828530e+02,1.684075796691421090e+02,3.647467141893511666e+02,2.346584375568693872e+02,4.122063716681993384e+01
2.304221365670046762e+00,1.198320576173022189e+01,1.177893988521005397e+01,2.527409959323205513e+01,6.019976240198100470e+01,7.884228440067238886e+00,6.065070803350084638e+00,1.808721848756182027e+01,2.292041515565387044e+01,9.737793439053428202e+00,9.366068793921792235e+01,7.960347089091434292e+00,5.214581735018960273e+00,5.353503339801778793e+01,2.020314170096821371e+01,1.777689769823294341e+01,1.834981207613545351e+01,1.582986808070660167e+01,3.702006511634547081e+01,2.932625897618493838e+01,6.231457657760132385e+00,5.503973064880944577e+01,4.395409932369109818e+00,8.876393111762655508e+01,1.001204563885169279e+02,2.523587289237814169e+00,5.460304203135486922e+00,1.369421152961459320e+01,1.208512208372535923e+01,2.010909874688828225e+01,2.006399999364240827e+01,3.176321830519510225e+00
3.552828632900991573e-02,1.707832695930159295e-01,1.993297222588715778e-01,4.450990725095468337e-01,1.063948900488252747e+00,1.291999900670567358e-01,1.203009649098082806e-01,3.084754640983393137e-01,3.893927437064429453e-01,1.550004044073966525e-01,1.955490945678094006e+00,1.132609656315465563e-01,9.893084139806596067e-02,7.629570276559325404e-01,3.633681536962648506e-01,3.048772681274727891e-01,2.721512095115944385e-01,2.496736374987699181e-01,4.498534820128856637e-01,2.607002888855928791e-01,9.369505918603511507e-02,9.003293406517071107e-01,6.005093556319398423e-02,1.101386952268687658e+00,1.459374640751787799e+00,4.003230377944214796e-02,9.945850105074433012e-02,2.071921412567652721e-01,2.051718726981690000e-01,5.084401526850155228e-01,2.587748204032483401e-01,4.247441161923164177e-02
8.809177068788274312e+01,2.032506905207612817e+02,3.168234566051146999e+02,1.705761515227284690e+03,1.762610243768112696e+03,1.503135204983463154e+03,1.022695403745456133e+03,1.202225552335379916e+03,1.378074548996691419e+03,1.007095443507068921e+03,6.864034260137597812e+03,2.607682866535922130e+02,8.456033992991889363e+02,2.608481956009418354e+03,8.789984645884921974e+02,2.319301358187072765e+03,4.346061310489791936e+02,7.937604816996038153e+02,6.439430294132007475e+02,8.810586671083082138e+02,1.974823820581062250e+02,2.964949652782809608e+03,2.559623248832967022e+02,1.145702957645389461e+03,3.110539577488767463e+03,1.014001466298766019e+02,7.618497149428079638e+02,3.845277177054659887e+02,5.268341985150391338e+02,1.293006021037869459e+03,5.064029154221274212e+02,1.051839049547957217e+02
3.294761610019626374e+01,4.274149768127909255e+01,1.811060333880319888e+02,6.723885753383505062e+02,6.458490817082029878e+01,8.582009964682941927e+01,6.807962223886337938e+01,6.536043518447901590e+01,7.085402895465080064e+01,1.142938841244514521e+02,4.915927387305869161e+02,9.578401547783754211e+01,3.472243982100624748e+01,6.352931327813196560e+01,5.149851496816339846e+01,4.374427730243348122e+01,5.365637482096644106e+01,6.645614919109584662e+01,1.042278151007151763e+02,1.052067367852383484e+02,5.606153627605769429e+01,5.045968653613561514e+02,3.459463590849169634e+01,2.000741501573678818e+02,1.206885004120006784e+02,5.061062806832230621e+01,5.737462984336196570e+01,2.082237682182934009e+02,4.212869498568870341e+01,4.695610454536898715e+01,6.806977987112099981e+01,7.024210620719249221e+01
3.800362912653778835e+01,8.406108470008635436e+01,3.127717506447265237e+02,1.213598046475165575e+03,8.839306737975734052e+01,7.575115577125369271e+01,8.845216781072072365e+01,7.813654109852437557e+01,1.328931548208862239e+02,1.933397436796878424e+02,6.867281904223223137e+02,1.485295293740487068e+02,4.483260214970886892e+01,1.050184987139429040e+02,6.825014181958913184e+01,9.002528170123491691e+01,6.364793618896391081e+01,8.533615229632577837e+01,1.399061652203994583e+02,1.936327772340274294e+02,8.992295103090634711e+01,9.268429578470314709e+02,3.376683507568142062e+01,3.580270030243878523e+02,1.983960515138578558e+02,6.158572434757483194e+01,8.875341581131033308e+01,2.818839422893800020e+02,4.103199076405797996e+01,8.614227064397479694e+01,6.470856840278356970e+01,1.225719943296137586e+02
9.648484895134254558e+00,9.553126677274832446e+00,4.890762949571679741e+01,2.369290391619016702e+02,3.636390413550772394e+01,2.948288165941607630e+01,4.304429071623000880e+01,6.544488029045115240e+01,2.335349208163844992e+01,5.201204450398149959e+01,1.809791316293346597e+02,6.214434993503101623e+01,1.696265953816209660e+01,1.762151590119670175e+01,3.248355743757113601e+01,2.523457693300151661e+01,4.940733763568566417e+01,3.563606233260494349e+01,5.597084568277466587e+01,2.920904245669973065e+01,1.278697576755524246e+01,1.574085892712142538e+02,3.103967919142120380e+01,4.249312355479201386e+01,2.919228141294192369e+01,1.092295918813683286e+01,4.127845253752408183e+01,7.483870263683836299e+01,2.012026780264344339e+01,1.930704080321307714e+01,1.821392284260414840e+01,1.819675468100501803e+01
9.299705577020578318e+00,8.401386598832985442e+00,3.015917255096567118e+01,3.062065310637326547e+02,5.026814080714011368e+01,4.373881792605860142e+01,5.206745634992274319e+01,8.269115400609862832e+01,2.571114310114133161e+01,6.981226491740515883e+01,1.256581834711467849e+02,1.072595193590766343e+02,2.170742452022902924e+01,2.100467873215933423e+01,5.091682179238836170e+01,4.155422686122825127e+01,5.683147151183225532e+01,4.925697396375559833e+01,5.823753961964534653e+01,2.623383850796295746e+01,9.683590948625804273e+00,1.802512757257388785e+02,3.853214047084031790e+01,2.384927066641177973e+01,3.154620997520731507e+01,1.030799181074672610e+01,4.922701298758569521e+01,7.046389469714438292e+01,2.392284263848727122e+01,2.276244459984416579e+01,1.131188241951703155e+01,1.390580532656033519e+01
3.015211690508741071e+01,1.983614671615317206e+02,8.408042039064368964e+02,2.477572075354900335e+03,1.635332775459526431e+02,1.186635615925314937e+02,1.061474132390202101e+02,1.380949567377732592e+02,2.665046993905164641e+02,3.334724502338326033e+02,9.920169056739320013e+02,3.719272119885411598e+02,7.551104160230910622e+01,2.375025943562177702e+02,1.019357696783216340e+02,1.226596264711961055e+02,5.919379280667856591e+01,1.189228350445268916e+02,2.386436111698969000e+02,4.554926211560463685e+02,1.557770104350505562e+02,1.739669350932119642e+03,2.519826830670317008e+01,7.998391558614931682e+02,4.134643430282759482e+02,8.826036069078780599e+01,1.993189407833652922e+02,3.786462046489899649e+02,4.312419738373304057e+01,1.933184059744507692e+02,5.196871165688735772e+01,3.181600468949259266e+02
4.054255156050316167e+00,1.685830469864961501e+01,4.618187865009886650e+01,1.232378361187197555e+02,1.193546622989780559e+01,7.034787154224331651e+00,4.779065849763194151e+00,1.026417451388970115e+01,2.364359514063203349e+01,2.851568161126836287e+01,5.963376697239816338e+01,2.442374552916584562e+01,5.030094525126973082e+00,1.489347140613090303e+01,1.145401899650557453e+01,7.038277580861155514e+00,4.376491010327687725e+00,1.177951631200403249e+01,2.823420613304354276e+01,3.367349159830223471e+01,9.786368842342973551e+00,1.476470740392849166e+02,2.689861069730839382e+00,7.258980190967055535e+01,2.797510516911636458e+01,6.220474646210780278e+00,8.135413289023782468e+00,4.169535412646102657e+01,6.490329349108370671e+00,1.240078940185281908e+01,5.634434418476581996e+00,2.465729415461087726e+01
6.518403756809862393e-02,2.476464719657923974e-01,7.991352215455630459e-01,2.000638591462453597e+00,2.063225913879077056e-01,1.349744153809133151e-01,1.040156507022774596e-01,1.741910277085539638e-01,3.547931364423037026e-01,3.936406698081527100e-01,1.158118759399487940e+00,3.943423493747878483e-01,6.979098557800604563e-02,2.103442193790044656e-01,1.591465930380568383e-01,1.316491754647291235e-01,5.888931382877301418e-02,2.199503355545314176e-01,3.354966269389125788e-01,2.899735224864720129e-01,1.500152273196483921e-01,1.973463691067499637e+00,4.561404894110075714e-02,9.153116838677226585e-01,3.701391710354482445e-01,1.081707045256632832e-01,2.571599709619458718e-01,5.262927441877863766e-01,1.013191663391223712e-01,2.800768826472453954e-01,8.058752834897101036e-02,3.222918081493240106e-01
2.061614888358491555e+02,3.093034204956824169e+02,1.119704806387402414e+03,8.488463280665131606e+03,1.101396032619342122e+03,1.165642081815302163e+03,1.467839552150081317e+03,1.721668466606039374e+03,6.723913958230630215e+02,1.908893323314994404e+03,3.608326381409351598e+03,2.828631360873775066e+03,5.819616326155683055e+02,5.545663525082325123e+02,1.369432103037840989e+03,1.113567875005784799e+03,1.081012202046409811e+03,1.247622972416077118e+03,1.368545735261973732e+03,7.349170154708725704e+02,3.000423548675418033e+02,4.639474629668782654e+03,1.026363198982808626e+03,9.661312523340671987e+02,8.337798436733161225e+02,2.458740911375130622e+02,1.059745529678939420e+03,1.927934503633356144e+03,4.310438915974028760e+02,5.718636072323190547e+02,2.607989349834944619e+02,4.853131076195679725e+02
5.294052639980078112e+01,5.817132088908609688e+01,1.329888132779038301e+02,5.066945161601378089e+01,4.943698466308212147e+01,8.277901756702661373e+01,6.347950747441993968e+01,5.586221647583354866e+01,1.657778834727486981e+02,3.021503548286528940e+01,3.635196662019549194e+02,4.913888680476775050e+01,4.901255154724720597e+01,5.315722490692004953e+01,1.482103201941663428e+02,5.475391134058366305e+01,4.694087720907440797e+01,6.414568109982218402e+01,6.538615118797092407e+01,5.510561959665847098e+01,6.430364103425409894e+01,2.726421308266571373e+02,3.189006555611767268e+01,1.109769975247000815e+02,3.539557157648189332e+02,5.956458874667854531e+01,4.571814884030262505e+01,4.662383065285165884e+01,3.766093224167558873e+01,5.807678524428161637e+01,1.341170712205748430e+02,4.325087878764973937e+01
5.771917338401611630e+01,1.182739735576043074e+02,2.361447368648335043e+02,7.884844714122290554e+01,6.615688792725265444e+01,1.569510055556284556e+02,1.036760086072830802e+02,9.178372020700348344e+01,2.461111895121204611e+02,5.179476956388624842e+01,5.095974831638853288e+02,6.435976052420767246e+01,7.954843937816545463e+01,7.377626663112010874e+01,2.341062530831796380e+02,1.142600640844328552e+02,6.030307750244536891e+01,7.286793490425412756e+01,9.622316458671973294e+01,7.916702479916499158e+01,7.472006482712446029e+01,5.098041200694965482e+02,2.178849217563749718e+01,1.894616896206174204e+02,5.473720289450976679e+02,9.356305333874595931e+01,6.325827759427085084e+01,6.192628125924766636e+01,8.397581454565614933e+01,7.794876999655880923e+01,1.980116665113179977e+02,6.718527427620151116e+01
1.115377666321450079e+01,1.291512322769277965e+01,3.347747867676893918e+01,1.802425466306198132e+01,3.117085520379165686e+01,1.593139516047007298e+01,1.910041636063343873e+01,2.826465646807925580e+01,6.470299411773710574e+01,1.583914057397005593e+01,1.357896125776611882e+02,2.129972860995649597e+01,1.578016760018895681e+01,2.005837004607381857e+01,4.907465897162994395e+01,3.403981297231351988e+01,1.665847591974340602e+01,2.598223858774724704e+01,2.111095238003514751e+01,6.824662339435559666e+00,1.956496784248579957e+01,9.770571268597298342e+01,1.093179636178791370e+01,2.091992432593295348e+01,8.813388744215477288e+01,8.002566625118967991e+00,2.863162026596581811e+01,1.053740414648083146e+01,1.174790931117899540e+01,2.175152331034851727e+01,3.491354931834035824e+01,1.106590940540947088e+01
5.365663419637058063e+00,1.117692614763546288e+01,1.571305203484969759e+01,2.497869566720048695e+01,3.638647461447727949e+01,2.422235181610841792e+01,2.012278788059977686e+01,3.966863236434677020e+01,6.580399623165909873e+01,2.057156085967601200e+01,1.006728967951016500e+02,3.825226021452065339e+01,1.962990790545887521e+01,2.170822456384654586e+01,6.360243433583272576e+01,5.474739423317167564e+01,1.400249249916949168e+01,3.494285615163158099e+01,2.147363512624552229e+01,4.228755883894902645e+00,1.327627904555036231e+01,1.131143366856979640e+02,1.207124456960093717e+01,1.176200063508130889e+01,7.289946255981969614e+01,5.868491899387487720e+00,3.797102466049132374e+01,8.949438670692064335e+00,1.262153682603158877e+01,2.130887497151129395e+01,2.387933922479965787e+01,6.769899620528057049e+00
4.943876123606415263e+01,2.702797683235604040e+02,5.995278045334401895e+02,1.661664268462611176e+02,1.264654851200723442e+02,1.074253052813163407e+02,1.301601921970382421e+02,2.167589679259552895e+02,4.120385684800290278e+02,3.159430374370968053e+01,7.384552235620443525e+02,6.011584672630291237e+01,1.869700533395031243e+02,9.622886852356512577e+01,4.199071600706569711e+02,2.002767727158744151e+02,3.316443843220786647e+01,9.983788281495944261e+01,2.329734895535645194e+02,1.521142636469144449e+01,9.481669582158505705e+01,9.647970798666987093e+02,1.497125590247929772e+01,4.138033937649382779e+02,9.945378651243745480e+02,3.126377900620662942e+01,1.326346965845013131e+02,7.952403937930435518e+01,6.286741274671111768e+01,1.244664401063449759e+02,3.363326466932552421e+02,1.576533648256166487e+02
6.305522293790300381e+00,2.316149567110774399e+01,3.187222587492841086e+01,9.343180806157628027e+00,1.028602775443873263e+01,7.091659024556833835e+00,8.824929835951991208e+00,1.298969755910299817e+01,3.441556337759136852e+01,3.048384063991965931e+00,4.462070957070100974e+01,5.441638456462120743e+00,9.248009130232796693e+00,5.506174146346927145e+00,3.545412021301115146e+01,1.215310015123651866e+01,3.328101000013273580e+00,9.750811785736384962e+00,2.330594989302227660e+01,3.332503323642138859e+00,9.661159311404675876e+00,8.428082895308789091e+01,2.140247024457636815e+00,3.716988411690608274e+01,6.256402103488962751e+01,2.814880864114227332e+00,6.423417521364345184e+00,8.554195580064906324e+00,4.387054907125600423e+00,4.433316538227675352e+00,2.911616438747048718e+01,1.357217127800143786e+01
8.304069994393521725e-02,3.375271855355109207e-01,5.431580161072625534e-01,1.473200091783246624e-01,1.755340081620158643e-01,1.363093980230695723e-01,1.646432644398646561e-01,2.160389724796473176e-01,5.818689905814138363e-01,5.666284242725174586e-02,8.667064019616546044e-01,1.200623780785389505e-01,1.447442982486301655e-01,1.003834097157692423e-01,6.330741970410836972e-01,2.043115225395550627e-01,5.202861075696848386e-02,1.822766983757834747e-01,2.812914618006254752e-01,5.093328927736153616e-02,1.480993629873256778e-01,1.071584128518335399e+00,3.237642508977627703e-02,4.727762923248902682e-01,9.242498560845031630e-01,5.232863971767548472e-02,1.771862288546447728e-01,1.420058190550376742e-01,7.842976514219043849e-02,1.118089766464203938e-01,3.583064135254779292e-01,1.874560891210803326e-01
1.866596637227958126e+02,4.346512126644530554e+02,7.118942161505641479e+02,6.738940118051571062e+02,7.683926617643995769e+02,6.204877148761357830e+02,4.836306145590145888e+02,9.636716974871592356e+02,1.627948013956464592e+03,5.627598162586286890e+02,2.852658694674857543e+03,9.243507514943527212e+02,4.850419488716208889e+02,5.654712364478582458e+02,1.719796509861896311e+03,1.471834489874872361e+03,2.986922409635549229e+02,8.512296786880277750e+02,4.934470850858678546e+02,1.585215419156826329e+02,3.610323336271100629e+02,2.716668511711948213e+03,2.991747371789247723e+02,4.845633183199573750e+02,1.991719367062973333e+03,2.285051007392617350e+02,7.915407009205064242e+02,2.371316173693366807e+02,2.493079357083223044e+02,4.949483061267006292e+02,7.000882117381178205e+02,2.334831903713419194e+02
5.184636058542176329e+01,4.829462726786998701e+02,7.070460269579002954e+01,6.252829241071622164e+02,8.052329061885167505e+01,9.795988522280630661e+01,6.144291921523583966e+01,4.815079430580865250e+01,2.658481207024195783e+02,4.524304168671589821e+01,4.700974145479585786e+02,7.175867139512423876e+01,2.819750039650446993e+01,5.398342991270445168e+01,6.863972696339257595e+01,2.608003141738650044e+01,6.967410947616689043e+01,1.199836254118503263e+02,5.908097223894606742e+01,5.204545797061221890e+01,4.536937619898561991e+01,5.424421589507103363e+02,3.671645098746343905e+01,4.940699000277382424e+02,5.343705643219021795e+02,1.493086618835714319e+02,2.964224881935144751e+01,1.006478445398720396e+02,3.695057666657013584e+01,9.466277376462606696e+01,5.739821444482134183e+01,8.583258463818410178e+01
3.992918214681296973e+01,9.721600019410327604e+02,1.207478970358682915e+02,1.123754081626068682e+03,1.166548372306333903e+02,1.293119420002666971e+02,7.122934365697990700e+01,7.100856092838780853e+01,4.279810965028222540e+02,6.650494262507021404e+01,6.518776726896727496e+02,9.105119927372571453e+01,3.731487509782899537e+01,9.446111476144240271e+01,1.083445311359623418e+02,4.964720285198671945e+01,1.061561161103818591e+02,1.546365407810115187e+02,9.587000769188492200e+01,6.770135607793241661e+01,5.642533294913447151e+01,9.929761213782942377e+02,3.797534355868615563e+01,9.118328288217537647e+02,7.804277819263143101e+02,2.660113976572215506e+02,2.867993354362174330e+01,1.385629381953415304e+02,7.228813921973028300e+01,1.597844972064891067e+02,4.555328212768797869e+01,1.348549280170052214e+02
1.382959025974174239e+01,1.200887847752535578e+02,1.807654571210069250e+01,2.218387070307868782e+02,5.541831806081383149e+01,6.649152672839016986e+01,5.178613800000918133e+01,2.559847337987489624e+01,9.519014913535662004e+01,2.865756512168763592e+01,1.742891463890493071e+02,5.467883478209272141e+01,1.127619624589539171e+01,1.822173455147911270e+01,3.220492394534702640e+01,1.245139322458493147e+01,4.525197165753875339e+01,5.883274012960492882e+01,2.117589133600829499e+01,1.118923255933438554e+01,1.476191312434232472e+01,1.853585271119169420e+02,3.358640554511788423e+01,1.085541514023350658e+02,1.419159877904779989e+02,4.394160188543953893e+01,1.957093982764762075e+01,3.562318394514739595e+01,1.541062261839328507e+01,3.438808857871462976e+01,1.450137024465635882e+01,2.202847810277296858e+01
4.863445385948045541e+00,1.021917838472747775e+02,8.879432941621784536e+00,2.877746580967980208e+02,6.848859679187610539e+01,1.004420299890174704e+02,6.140422929870030799e+01,3.333597895751955065e+01,9.609985322837262345e+01,3.986080305808140167e+01,1.234881421832731832e+02,9.362900117571608405e+01,1.321284724139898614e+01,2.197009550851186077e+01,3.986737144059941329e+01,1.533232610903435145e+01,4.394709247305326016e+01,7.327930408512125382e+01,2.377271195861489161e+01,1.032937566708839405e+01,1.088495875865697116e+01,2.162638607160934896e+02,4.131677517154636803e+01,5.348796634607055722e+01,7.876179449907090202e+01,4.114292567849977900e+01,2.407813236103929810e+01,3.574139207913181338e+01,1.901214468855941320e+01,4.573196924945818154e+01,6.810459813825579189e+00,1.268126242003945237e+01
4.377390101122641397e+01,2.182748543068696108e+03,3.168278040115507679e+02,2.255944230209279340e+03,2.206641024343665549e+02,1.777884396748718814e+02,5.356896747240809020e+01,1.431072918827228762e+02,8.041128342244086298e+02,8.871335201939457704e+01,9.192434994921779889e+02,1.738187534592161398e+02,5.114985252335727495e+01,2.079563372983852503e+02,1.812254119958562910e+02,8.613633592453653876e+01,1.333249599225238740e+02,3.030308325101383389e+02,1.592616387998926371e+02,1.012021064509082606e+02,7.484912109023956361e+01,1.860165470314891081e+03,2.663405829498313437e+01,1.913157451764858934e+03,1.215672766590700576e+03,6.650559829917873458e+02,4.631813221696675242e+01,2.077864287652587336e+02,1.051384765834377930e+02,3.414651655086656206e+02,3.057850039505603235e+01,3.036461504293430380e+02
5.552543093259743046e+00,1.851359401834238838e+02,1.741175430379190558e+01,1.150908890561352393e+02,1.690446438806306162e+01,8.748018960007081901e+00,4.497069808993434670e+00,9.640824532290592330e+00,6.949900879079075366e+01,1.153687972814534035e+01,5.024707745758468036e+01,1.317816453805596133e+01,3.746682778641539091e+00,1.312800220524662898e+01,1.662910730699308459e+01,6.538449609756428416e+00,1.725791926543213251e+01,2.774179605957633399e+01,1.561234196073311331e+01,9.453926142341190442e+00,7.159560619377458579e+00,1.585110085300072740e+02,2.119618871755992284e+00,1.659479889924763256e+02,6.589524346797215060e+01,4.192966412772044293e+01,2.371295758603930270e+00,2.368258602802855961e+01,1.209802575310873252e+01,2.252592622169698444e+01,4.240748005693772527e+00,2.443538304367907088e+01
8.067823078914165835e-02,2.694713280388294496e+00,2.997437162691695689e-01,1.910891807083836325e+00,2.936958160998102696e-01,1.689733891835593638e-01,9.370982868470761895e-02,1.667554572583759276e-01,1.078042507984400933e+00,1.750336474892832117e-01,1.038627134316494116e+00,2.371185947424242213e-01,5.825445422953245272e-02,1.946466710389432586e-01,2.960773023132926007e-01,1.155736711559590679e-01,2.568389678669865672e-01,4.224771445917804291e-01,1.829972287696389477e-01,9.253597140722011338e-02,1.015483756995439191e-01,2.099817010782962790e+00,4.419587498576523638e-02,2.041216749114953100e+00,1.179957505037002363e+00,6.200608219133959542e-01,6.170944803841243997e-02,2.861360820202697997e-01,1.854654706523126695e-01,4.888506403450779692e-01,6.376452375098864978e-02,3.337886149095751209e-01
1.944783930169080861e+02,3.993647032138017494e+03,3.738228667312772018e+02,7.946790487779768227e+03,1.430748408391878002e+03,2.771677706016509546e+03,1.746003958146321338e+03,7.736705145758993467e+02,2.431669734441827586e+03,1.071097077680493612e+03,3.507076456055130166e+03,2.416008061806531714e+03,3.297814097986774868e+02,5.891554414722211277e+02,9.520201240710633783e+02,3.933148813254233573e+02,8.366962245506451836e+02,1.526203121495880850e+03,5.517069788410639148e+02,2.458550054174449144e+02,2.952634947658698934e+02,5.239649754280542766e+03,1.022218658507304895e+03,2.370359550347422100e+03,2.411319489018562308e+03,1.309501932007733103e+03,5.131019389660158367e+02,9.696905139826319555e+02,3.107864175409116569e+02,1.098542301996368678e+03,1.925622040326450417e+02,4.809570793906701169e+02
1.679806200736554678e-01,1.671086599459341293e-01,1.899273099386649677e-01,1.509843988863020792e-01,1.187962105980771149e-01,1.437679842770882566e-01,1.817847769141302527e-01,2.320833692759587952e-01,8.576310894649646910e-02,2.067151143560669313e-01,3.349673144348596504e-02,1.309627380993705903e-01,1.013380645878747405e-01,1.122821601935488356e-01,1.650772832041788041e-01,2.182077614194082860e-01,1.730070097706704058e-01,7.563698098528591485e-02,1.780910941549566640e-01,1.620639797342848798e-01,1.087361920595660142e-01,8.401025225987028555e-02,1.645292575143562641e-01,1.199715491113613752e-01,3.527954716810680763e-02,1.592244252025073192e-01,1.140059553427368449e-01,1.676611183167740216e-01,2.061387121828338054e-01,2.426307017677009348e-01,1.682976569546467960e-01,1.931334417909302548e-01
1.721098355710422023e-01,1.477880375471046503e-01,2.038084903929477387e-01,1.203918494781607978e-01,1.293342543672557077e-01,1.535978118642378765e-01,1.916675106212205881e-01,2.825961038028609318e-01,5.687242038692658097e-02,2.478347404710260771e-01,3.552309526264130907e-02,1.548893864595258796e-01,1.053820060200765796e-01,1.146685490504173593e-01,1.572975680041037716e-01,2.214346896684142030e-01,1.822027919358026327e-01,6.206271376813312507e-02,1.490476948697504744e-01,1.788267072765820642e-01,1.141142979471392177e-01,8.599466292483966268e-02,1.835828711137058311e-01,1.146489690631745523e-01,2.659848172086561394e-02,1.581639938323516070e-01,9.419052245268452750e-02,1.527895544221707369e-01,2.212868654079783448e-01,2.958416501637946006e-01,1.795973257253872246e-01,2.151051399210476556e-01
8.536191307809490314e-02,8.620058676861203084e-02,8.615279036007651714e-02,1.096109159822064028e-01,5.208887084781935878e-02,7.452809336795347683e-02,9.689874551574693962e-02,1.906086441899951522e-01,4.875924837545252827e-02,9.600485429978906915e-02,2.587465536105756220e-02,5.483990026226741310e-02,4.374316950981259333e-02,4.749691762317433119e-02,1.332350852659275886e-01,1.352687196346881449e-01,9.844461401397942846e-02,2.156752940677041444e-02,8.032053336469274774e-02,7.782532369065832401e-02,4.530037719719949563e-02,3.970133433185465271e-02,1.112482055811671033e-01,7.494262878518136162e-02,1.057657730990894940e-02,1.278796028978888000e-01,7.306339759425199698e-02,8.153080566458001388e-02,1.334199029076348630e-01,1.126436554398611706e-01,8.901304360804838944e-02,9.028441191717585801e-02
1.201624062916192281e-01,8.906071609090612795e-02,7.444368298150862151e-02,9.899352098263827782e-02,5.712580148567454608e-02,8.090171235782230019e-02,1.113396219381055374e-01,2.822983431253036080e-01,6.100493248442635102e-02,1.159221468038952596e-01,3.378210738374523570e-02,5.210310836844549848e-02,4.732634720888949376e-02,2.884548502635166448e-02,1.545151293374920354e-01,1.764885877358339794e-01,9.651336941172608541e-02,1.510471489334109033e-02,7.195328546471455033e-02,8.705302561013289475e-02,3.356250180874790351e-02,4.367518083683508134e-02,1.389747683491478480e-01,8.386134260260558193e-02,7.362032811705694971e-03,1.650986964584346683e-01,9.910814261316922003e-02,5.683846016622883662e-02,1.279647121133461740e-01,1.381845978527132812e-01,1.066504606778758552e-01,7.996876881455775021e-02
1.374109005456969623e-01,6.896778126047482804e-02,2.109114354719318629e-01,6.939590336368454959e-02,1.378522770377607065e-01,1.257217845661247058e-01,2.043732692758109815e-01,3.565550111637849073e-01,2.119952813784203860e-02,2.829956286426275613e-01,3.880322424600814862e-02,2.257803004241350497e-01,1.148331680658635223e-01,1.000751612920530026e-01,1.305796560792301941e-01,2.541138035885101010e-01,1.619157999353069977e-01,2.812050688236665888e-02,1.208666231692783616e-01,2.115673665178471330e-01,9.414383457456362847e-02,8.577091337622864964e-02,2.109631974063722049e-01,1.332195030172565742e-01,1.680814052826832758e-02,1.688815675891063017e-01,7.240729659155877018e-02,1.314248241234384773e-01,1.720222114356972920e-01,3.542670368942258396e-01,1.319529018340458160e-01,2.051467593208049500e-01
4.066996633444497911e-01,9.891695144841593235e-02,3.409440295335512405e-01,1.727879787907652953e-01,2.740328762199651380e-01,2.844156885060602491e-01,4.136954807123290334e-01,4.527144557593423824e-01,1.314999379193246276e-01,4.131629542593245885e-01,1.410217327102868956e-01,4.204054277717704791e-01,3.425294011394729998e-01,1.554880639727224678e-01,2.829749730836130794e-01,3.693198873696358908e-01,2.845124380744325499e-01,1.147227088624556690e-01,3.267001137658170351e-01,4.201057594166999754e-01,2.309860843086424531e-01,1.550661712692567584e-01,3.705626200419750993e-01,1.968953982446458306e-01,7.405776071983856401e-02,2.579257731039119039e-01,2.248560328356227489e-01,3.698958367459052043e-01,3.310899383682030517e-01,3.377300047348599232e-01,3.151216758730427392e-01,1.645062474034965916e-01
1.721892258856005387e-01,1.407458100080561936e-01,1.388024102577465890e-01,1.564342128620568595e-01,1.573219925350895776e-01,1.825579263630926763e-01,1.576765442047669552e-01,1.983805480276477351e-01,2.097892113057994445e-01,1.405500371202111076e-01,2.817237921109297383e-02,1.695708666282487731e-01,1.484018011973431139e-01,1.477085925603201233e-01,2.543958534669000238e-01,1.658564593697993417e-01,2.002334641491526068e-01,1.141829002592871373e-01,1.802525789728740557e-01,1.608223907700196131e-01,1.785902681973238482e-01,1.843902173050262772e-01,1.761078613960353201e-01,1.231726290011648656e-01,9.540578036707358933e-02,1.763005203934703558e-01,1.920163211729032371e-01,1.111289912373124716e-01,2.272068011864574466e-01,1.503089557087906591e-01,1.968153444286649678e-01,2.055443996201918033e-01
1.771102124633369967e-01,1.304221424843554911e-01,1.508505189860634421e-01,1.678223565233293579e-01,1.501063910696298076e-01,1.786196347176476629e-01,1.701009380774048396e-01,1.926860836307528468e-01,1.799069585976899588e-01,1.552287093662709783e-01,2.792836203581769428e-02,2.061308143682327731e-01,1.560113827315724733e-01,1.051190063011541997e-01,2.658649374887336880e-01,2.109306535202801480e-01,1.934179558582201641e-01,1.031408607789826432e-01,1.786322503306536358e-01,1.586090219623271236e-01,1.693550319796323367e-01,1.950883734801973080e-01,2.026780167616873407e-01,1.193429180262145506e-01,8.232041688223706855e-02,1.904158942996977966e-01,2.377633140854208960e-01,1.041097678391494780e-01,1.980343219971417712e-01,1.657237210820723394e-01,2.047521186660070935e-01,2.513956459529584908e-01
8.134863479999594749e-02,6.825744262735565504e-02,5.447291048077500253e-02,8.229873976806247049e-02,8.659562455263022929e-02,6.410171401041847572e-02,8.894716173101874235e-02,1.329176876619762304e-01,1.384952174859670204e-01,5.585463391313118253e-02,1.272572453440841758e-02,1.203794848487475116e-01,8.165281349657269039e-02,4.815201354973683290e-02,1.626262917944353292e-01,7.734061322730118038e-02,1.487935176179659424e-01,7.435488852379606994e-02,1.025964615526787499e-01,7.932002978201564691e-02,6.830878485897888541e-02,8.949591242709420413e-02,1.273939231818604079e-01,6.387232764675872254e-02,3.276691807494890030e-02,8.497457409339657930e-02,9.186222197049732918e-02,7.710033741759428350e-02,1.198213730272514876e-01,7.648098042803366803e-02,9.495204982254520920e-02,9.416420109762785318e-02
9.876193698009130828e-02,6.957435199998143749e-02,3.130991672360133177e-02,7.133089956370260165e-02,1.014571852743735014e-01,3.929790401354453511e-02,8.172965731715151061e-02,1.665052937044663173e-01,1.578243531083333984e-01,4.585115117980875787e-02,1.933784849298391881e-02,9.320760094810263963e-02,1.054284532073704733e-01,2.326044574236149284e-02,2.066874172188983005e-01,4.671438012640276999e-02,2.053926111821441636e-01,1.149293759081110033e-01,1.187097826813629520e-01,6.411526140418981334e-02,5.351574419966144414e-02,1.016353190895612074e-01,1.508602394457603246e-01,4.567845962471803190e-02,1.300541062710356549e-02,8.732403707079017252e-02,1.275189556326656870e-01,4.938530571068038694e-02,1.526331898594137371e-01,6.894053286660546676e-02,7.492538439413948259e-02,7.648144981218300831e-02
1.768440879633965679e-01,9.092860151135007118e-02,1.331201720202782046e-01,1.714242928494465190e-01,1.269010119483788834e-01,1.912649344883950997e-01,1.094537879922777568e-01,1.772524376178311045e-01,1.407378380100133830e-01,1.343292109679104507e-01,3.331260759744752997e-02,1.729852136115053174e-01,1.788149879403306552e-01,8.467685982834954883e-02,2.627094869513359465e-01,1.571724812775078806e-01,1.565017672962698558e-01,9.075270217054719202e-02,1.437493319019155780e-01,1.456178372300412360e-01,1.505036018350037752e-01,1.959625710536609666e-01,2.110233069105551251e-01,9.345185940420315529e-02,7.658664294915645820e-02,1.700721183586848817e-01,2.915985148495382484e-01,1.079829153115351159e-01,1.430437750020003007e-01,1.741371436146624818e-01,1.341943405568012948e-01,2.920594700333793425e-01
4.306791852907195239e-01,1.610408577344063785e-01,1.781854656481588195e-01,1.895671620506345634e-01,1.787589223259185289e-01,3.588906778607731662e-01,4.185764997728045889e-01,3.292637818376963343e-01,2.723484588092738301e-01,2.061467094674643286e-01,1.150805326009102930e-01,2.827906815515534023e-01,3.160205720439462351e-01,1.651338274822488628e-01,3.769798946722365263e-01,3.489808713917846306e-01,2.264388169163771836e-01,2.767173032514001485e-01,2.555769363648861536e-01,2.230455711494609972e-01,3.519926710882160248e-01,2.905481304385612029e-01,4.320797778821472979e-01,1.764230174335655321e-01,1.134132350516158932e-01,3.466627555961842577e-01,3.979351473841072906e-01,1.964655740837900344e-01,3.396176339703955716e-01,1.905887929830709093e-01,2.531815491176037103e-01,2.720786342402030655e-01
1.451705127645085969e-01,1.387936880319290411e-01,9.472245204133247776e-02,1.379909010396185853e-01,9.921351549413866266e-02,1.948077731709125793e-01,1.796956177718316838e-01,1.679143252156133082e-01,1.185028679807295371e-01,1.730523958944145679e-01,4.199557031104338839e-02,1.395432256420889028e-01,1.788155553953259813e-01,1.720482767879739916e-01,1.423275163868245874e-01,1.629723430457995226e-01,1.766393734216984424e-01,1.167351178263316969e-01,1.694809387926499433e-01,1.468921773612478221e-01,1.190498881850502316e-01,1.098078829547859264e-01,1.881519197442612645e-01,2.134157331123170409e-01,8.931266468322135443e-02,2.266808172519339803e-01,1.254695553800844743e-01,1.893999824151436917e-01,1.509565019428162902e-01,1.465850877249747497e-01,1.785221802583809858e-01,1.571532405986282299e-01
1.329781492386084285e-01,1.287015233724631280e-01,7.897193866421119146e-02,1.183261269617126160e-01,6.109011239155495709e-02,2.387994828863017616e-01,1.611871856514552614e-01,1.699602267958581492e-01,9.290090974501731547e-02,1.787555132053834650e-01,4.121215403372943675e-02,1.436790267502892626e-01,1.883316014661071680e-01,1.841296086367955054e-01,1.309209107636691849e-01,1.576547554448842758e-01,1.808150635670948414e-01,1.230926201840394363e-01,1.715182742340407296e-01,1.852605812859188794e-01,1.118579704446521078e-01,9.945893887574114300e-02,1.899367684599422013e-01,2.175414713348232942e-01,9.216130784537739096e-02,2.465699193397833111e-01,1.194211465526533178e-01,1.973333813592136055e-01,1.847622739505721812e-01,1.839623086889166648e-01,1.978744264478322912e-01,1.552305519106120801e-01
5.945546776132287770e-02,6.062362879558930162e-02,3.718037052745017113e-02,6.043185024445345277e-02,4.792812229572069455e-02,7.873597573091704882e-02,1.525880391848523088e-01,9.418944398612072444e-02,5.137399462558107227e-02,7.839150089497118334e-02,2.114564841382452279e-02,6.899929861750495053e-02,7.979072241422800749e-02,7.990538956702103457e-02,1.043374625960659663e-01,1.116582732389024141e-01,1.152510684199703900e-01,7.514442295653758763e-02,8.611848889307831267e-02,7.360857682185893702e-02,4.467910352579513439e-02,4.517235849100272038e-02,1.574569674444476486e-01,1.130442037632454350e-01,4.646724470355322739e-02,9.559253819711602262e-02,8.022722400000086018e-02,1.015709494275071623e-01,8.439829170319149143e-02,6.069876460423053594e-02,9.596472815810530577e-02,7.826681560815683392e-02
5.791252375049760898e-02,4.281435366109708623e-02,2.303959875538245591e-02,5.764537875045699228e-02,4.893218395965309719e-02,5.197873893832632292e-02,1.911343092364120033e-01,1.022662791072120325e-01,5.608113232478614818e-02,8.816632309952100732e-02,2.989979095439090559e-02,5.285826106800372431e-02,1.088836235702904803e-01,9.738896537546888610e-02,1.171666582700465337e-01,1.470019813078163595e-01,1.522258290832478045e-01,1.124129126589432232e-01,1.013535078908510273e-01,8.136046979668587475e-02,3.398004244748967229e-02,4.274760044376604146e-02,1.976373487370011728e-01,5.020533493327038188e-02,3.163397874117326175e-02,8.758462488111738720e-02,1.301758163141521207e-01,1.085019739139524153e-01,9.432861828635040469e-02,8.424782540928933694e-02,6.359314160596060694e-02,4.728500574944672491e-02
1.071578439515739750e-01,5.935875911258955279e-02,5.930823558279028213e-02,6.400137040641461217e-02,3.336301263247025417e-02,2.335869708357679042e-01,1.869204327480667727e-01,1.470829806111524918e-01,4.786085318809337602e-02,1.701415559240135877e-01,3.748664688920664428e-02,1.213500170801325023e-01,2.175518331399291516e-01,1.930719541796749872e-01,1.164977359353300962e-01,1.738756943322446180e-01,1.360506780139588701e-01,1.163359859972010468e-01,1.688178420218648390e-01,2.087729221904316423e-01,7.911943661360144875e-02,9.552811774174699289e-02,1.606798352655771367e-01,9.878312527563778978e-02,9.810378995563272253e-02,1.558339266194899431e-01,1.105101728801217154e-01,1.773248179787120515e-01,2.079543843584573115e-01,2.371556531810797841e-01,1.827181234402437682e-01,9.820658716790894860e-02
3.294877075453588322e-01,5.377545262149691779e-02,1.003063475928060028e-01,1.584222449843158687e-01,1.000179544336511489e-01,4.255932615392638008e-01,3.548331815419941138e-01,3.017802508077659929e-01,1.363130014984377802e-01,3.685337199190079072e-01,9.806428550108811648e-02,2.633945311720139459e-01,2.870595721414081480e-01,3.947325058164406486e-01,1.273991977778454188e-01,4.074744014805052328e-01,2.438183766710071976e-01,2.825039366170218891e-01,3.295549364296193606e-01,4.006545369392225386e-01,2.376076974443266654e-01,1.529098917595377582e-01,3.835267814047957913e-01,1.534659431387598860e-01,1.563714386770639064e-01,2.712471659204068741e-01,2.930675636179584931e-01,3.555291280711356250e-01,4.008158353675709829e-01,2.917908056262875638e-01,2.494097454917817702e-01,1.491085612441652719e-01
