9.794260330768534573e+01,4.181293206141887140e+02,1.191512208574905287e+02,2.865231571280253888e+02,1.984652343500098937e+02,1.782599428616393311e+02,2.235877401859070801e+02,1.425930144244410371e+02,3.047553169052262660e+02,3.005978253790636359e+02,1.929500473589892863e+03,2.495292509959185736e+02,1.199056854501204015e+02,2.677044981175565681e+02,1.239013172132873990e+02,9.818184995202426535e+01,3.315847405207085785e+02,2.078390575928657711e+02,1.618489236841847401e+02,9.722653737422777454e+01,1.975532279672953848e+02,5.317874352400383486e+02,1.301296369964986752e+02,6.598914589417230445e+02,8.413230550276927033e+02,1.415609220566391855e+02,1.213059927953646877e+02,1.714518787534363184e+02,1.730411265362967868e+02,1.265622706498481591e+02,1.961649615970511320e+02,3.200828989455525857e+02
8.746073791108936746e+01,6.600252133079748091e+02,1.236250116790059366e+02,4.547356303159157846e+02,2.966304568762164990e+02,1.969975658333867159e+02,2.810395192377575313e+02,2.027291972143480052e+02,4.216486620817326525e+02,3.721251228244249774e+02,2.495743340395314590e+03,3.112103953070834450e+02,1.421118532550165128e+02,3.462027145760699227e+02,1.674156914440752075e+02,1.270541785504133827e+02,4.700007959097540038e+02,2.514694856172300206e+02,1.668555430970218083e+02,8.847683252262022791e+01,2.435166084360219543e+02,7.464700988062664919e+02,1.154978239578934023e+02,1.082380862913604233e+03,1.126460161782238401e+03,1.994925768770775107e+02,1.345377920835986743e+02,1.764524216690752780e+02,2.296409732826669767e+02,1.969275559633487092e+02,1.443973094534225368e+02,4.649762138839981844e+02
4.840069500890373888e+01,1.752542275153270168e+02,6.361346869202632348e+01,1.375988129892666052e+02,1.088587476980134454e+02,7.011017550230926076e+01,1.902194162219475402e+02,7.823515733800358873e+01,1.335629048346931427e+02,1.903789222970843014e+02,1.091651629401143737e+03,1.967268841106701132e+02,8.493451100113482255e+01,1.553033007600449480e+02,8.899837334624928076e+01,6.964158001458531544e+01,1.356276436646394927e+02,1.422608419295854389e+02,7.592057771770998897e+01,4.041723534613880275e+01,1.181899211788903585e+02,4.293220085750297130e+02,9.009026960206189472e+01,2.361042010208370243e+02,4.952117807034509269e+02,6.055980515702572831e+01,9.960838345886068623e+01,7.669387699899701261e+01,9.087947477801721163e+01,8.072041141586377933e+01,8.840793634834621173e+01,1.921513299699739719e+02
2.203503416384025471e+01,1.459422871365042624e+02,5.229779521855040514e+01,1.412363064958656196e+02,8.400007094170321409e+01,4.713164633908560575e+01,2.205324147235824910e+02,5.373318783743957283e+01,8.727678043415849629e+01,1.322362631844420946e+02,7.170201452138317109e+02,2.060125559056444331e+02,6.676092278225048915e+01,1.158563834213594674e+02,8.573964741174228266e+01,4.887224907859484091e+01,7.429670662245555945e+01,1.161688423156442980e+02,4.832948937836791714e+01,2.134798674770486215e+01,9.259263568575609327e+01,4.805502396250942070e+02,7.684655625593268269e+01,1.007303295688199398e+02,4.429307212439258592e+02,3.786071929007894710e+01,5.585202777945061570e+01,3.750234017538859632e+01,5.990206731263651108e+01,6.153835663763808128e+01,3.636018109936119913e+01,1.784783941401651646e+02
5.829759473769593114e+01,1.334021043958263363e+03,1.929556573912341548e+02,8.489601048293995973e+02,5.800883090349706208e+02,1.677877802623881962e+02,3.627320439247096715e+02,3.850832658750366022e+02,7.501095256928578010e+02,4.505022810335542545e+02,3.465197766148180563e+03,4.285080705024295753e+02,1.821557602006481886e+02,4.666749877722854762e+02,2.612694592665689015e+02,1.076395836937648482e+02,7.850791006089390294e+02,3.282401727230914048e+02,2.224156956448534572e+02,5.890860160548043467e+01,3.447269349911391600e+02,1.180051101152515230e+03,1.245268761504480040e+02,1.565890690845309791e+03,1.695872633100474332e+03,2.340469525111634255e+02,1.532511311572243073e+02,1.209968649499913624e+02,3.289734327332838006e+02,3.879989920918683310e+02,1.213027376479193862e+02,9.473599552940866033e+02
6.981223814676006389e-01,2.201324140392736695e+01,3.648364824407425822e+00,1.092329948966383313e+01,5.942452264457924294e+00,1.737334065696082508e+00,4.138103473385631226e+00,5.404625909907757375e+00,6.729383140757197346e+00,5.857489929483508107e+00,3.169285263853723222e+01,5.103844400390802782e+00,1.421285553134610913e+00,5.724350563307533335e+00,3.860409797312538860e+00,9.762926223126754399e-01,9.583279149782059747e+00,5.998566656428882204e+00,2.716737390267369268e+00,6.574425304867020925e-01,5.785494754790509120e+00,2.723452180190962224e+01,1.735757079965753347e+00,2.285275457427283641e+01,2.124414316106091505e+01,3.018025608489831590e+00,1.781305693705304005e+00,1.330000978674943379e+00,3.797302749436051617e+00,8.030881866211917242e+00,1.302344508572669923e+00,1.978645518838461115e+01
5.714109178463023207e-03,6.511129658911919693e-02,1.752157008908164634e-03,-1.057941686298390638e-01,1.550336170881751532e-02,7.279618316341076451e-03,-1.876854800252045902e-02,4.093449733754869063e-02,-1.885624066259434725e-02,-7.304246110650604480e-03,-4.622080170565176505e-02,-4.211542051111822650e-03,1.385166211872703758e-02,1.884241836230506409e-02,-3.602997274792977406e-02,9.071920711978849819e-03,-3.379408554535408282e-02,1.702264439855851602e-02,-1.354684692285897281e-02,1.730505107627512175e-03,5.064261931276695106e-02,3.531036446114228095e-02,-1.400864409802654413e-02,-1.077123395420827023e-01,-3.569164434532487353e-03,2.432281283549958886e-02,1.208680341106724981e-02,4.262060418661446463e-03,2.913249086053898429e-02,-8.172268814062509656e-02,-7.216415303660113877e-03,-2.687373881462938874e-01
9.990447389688350768e+02,5.918974360250303107e+03,1.830416970648182769e+03,5.121022216260510504e+03,3.124558790745824808e+03,1.862507360998863760e+03,6.806860805449460713e+03,2.167966055952940678e+03,3.677493046637503085e+03,4.707042475472674596e+03,2.626809178015289581e+04,6.568965659982896796e+03,2.284921857031571108e+03,4.141435002007483490e+03,2.814542740701841922e+03,1.789890144228024383e+03,3.429998760715036497e+03,3.982280527966659974e+03,1.862659910438934276e+03,9.150418326048919653e+02,3.235399584017577581e+03,1.517353163485290861e+04,2.524265387056195323e+03,5.983928246521548317e+03,1.513528444910746293e+04,1.593745166844823416e+03,2.130028517824644950e+03,1.649672740240994699e+03,2.233217341648573438e+03,2.383545715307098817e+03,1.756006948500779572e+03,6.323566805196334826e+03
1.072172818678481576e+02,1.458346696744551991e+02,9.040286041196880262e+01,2.560702032681865035e+02,1.850150714750411680e+02,2.873007450211970308e+02,1.744324053142460400e+02,1.326793460005509928e+02,2.661684777033666478e+02,2.550942550633988617e+02,7.056021344491753098e+02,2.251037042313930669e+02,2.492667780325815272e+02,7.298578382674896829e+02,1.010129106062529871e+02,1.117124950637347638e+02,2.518055276440448154e+02,2.807132083392245931e+02,3.254506458324066784e+02,1.145748024969750531e+02,1.088301534382320455e+02,1.739774952777313956e+03,8.800498671545285845e+01,4.305545659583139013e+02,9.821837874446674732e+02,1.721201000030450246e+02,1.269544644530306527e+02,3.157204253813443984e+02,1.194918457709227368e+02,1.710762155028761526e+02,1.947327642928411819e+02,9.951995196367028029e+01
1.027153357513189178e+02,1.787712119201919450e+02,7.860918120590045532e+01,3.693829393574812343e+02,2.444346170688100131e+02,3.231375741113420759e+02,2.323582828400460016e+02,1.539326959109195911e+02,3.867966178852739745e+02,3.573563363104793211e+02,8.925826232294676856e+02,2.803992638104310799e+02,3.046921390887645771e+02,1.043185430065600258e+03,1.417401863916953744e+02,1.672167855001566465e+02,3.158737943289625605e+02,3.561058879999893634e+02,4.235032897662483720e+02,1.222242970945277136e+02,1.304225419677246407e+02,2.578912185185930866e+03,7.621133686706940580e+01,7.152690514067417098e+02,1.326016692893987511e+03,2.399111054295167094e+02,1.452933926081587401e+02,3.784953044318608022e+02,1.562795817202640194e+02,2.127193074326619069e+02,1.846451662552357789e+02,1.143080580076624813e+02
7.014593399729226064e+01,6.042731395127572824e+01,4.360996109914071184e+01,1.450289282572263971e+02,1.171659272288748639e+02,1.735968963243942937e+02,1.244516239325647859e+02,1.035267219738908153e+02,1.261043283854414909e+02,1.526090453224112480e+02,4.298740636046687769e+02,2.065769238168819015e+02,1.727952121678081596e+02,4.702669480354342681e+02,7.551339089100055446e+01,8.912682154079946883e+01,1.358752055137740342e+02,2.019968107878154058e+02,1.728915186130573431e+02,5.288735134365065704e+01,6.789706497077393976e+01,1.377484000330421850e+03,6.848040001348877581e+01,1.456041712003874977e+02,5.868969979834507740e+02,7.677219530497796995e+01,1.081059164954878327e+02,1.712010052369288644e+02,6.108545823363317595e+01,1.112523203984947315e+02,1.056582421952981008e+02,6.145259677901007223e+01
2.676976024641663798e+01,3.952448351083724276e+01,2.285732362368577242e+01,1.237927432718210099e+02,8.784793827320349635e+01,1.530859979189775117e+02,1.119975732173374325e+02,7.352808321300159378e+01,8.615751972571030137e+01,1.148473738093578191e+02,3.013687118861722070e+02,2.109368976411195717e+02,1.354182635801345214e+02,4.402649620207599810e+02,7.426564972916331442e+01,8.414535622717002639e+01,8.890637754337799947e+01,1.671187617794867890e+02,1.237174337457062450e+02,2.976601023695592119e+01,5.036916520997498026e+01,1.555244275578557335e+03,6.199178127985502584e+01,6.904984622039451381e+01,5.330708219245918826e+02,4.152916133497093654e+01,7.023302927729908163e+01,1.134000618105460916e+02,4.251600856054702859e+01,6.842681890559514102e+01,5.265828619430850921e+01,3.817670130831612596e+01
1.034271548487795229e+02,2.823316226448357042e+02,1.001198533986956960e+02,6.698581327696845165e+02,3.790753233228991803e+02,3.441033520056975590e+02,1.817259056754413393e+02,1.787880399821104334e+02,7.187426908863230892e+02,4.956348659575759257e+02,1.197935341131687437e+03,2.725969831789695945e+02,4.202809015472723217e+02,1.734501316721517469e+03,2.040178852154211597e+02,2.337528078300420304e+02,3.930095219515287113e+02,4.855312834074375701e+02,5.472702712392925832e+02,1.337744462447592753e+02,1.793414991888242582e+02,4.244017978729141760e+03,6.842378421326704085e+01,1.165062150886114296e+03,2.012863462729644198e+03,3.284452079864362304e+02,1.736035135688668163e+02,3.760728828592428385e+02,1.707449407848736769e+02,2.750904623151728856e+02,2.150462819933539436e+02,1.214958259622767542e+02
1.321233919621893627e+00,4.380293257389610950e+00,1.118489161749278926e+00,8.399594561361276135e+00,3.583114921045097656e+00,2.954728605164226529e+00,1.713347635996566032e+00,2.407281293079021278e+00,6.460510185545670581e+00,8.786462740437563923e+00,1.037780301945505457e+01,2.908741080658977740e+00,3.085988655095039945e+00,2.559162533336316869e+01,3.069725456999669699e+00,4.016191162721100660e+00,3.783342857625660027e+00,8.755521754141231128e+00,6.906041082885277405e+00,1.920758352685340009e+00,2.743490838563559464e+00,9.933421232474269402e+01,6.329000478405858443e-01,1.829437554813620181e+01,2.571388544792415942e+01,4.983283933719233616e+00,2.125504652689381491e+00,5.395498804298505924e+00,2.135216219214763012e+00,2.214590909399728691e+00,2.621118371090889632e+00,1.244023627796489118e+00
3.757470139203356908e-03,5.140670553771233692e-03,2.767241928197630447e-03,-8.625788927992456001e-02,-1.806589952882898045e-02,-1.970330554648389021e-02,-2.615051279636292601e-03,-1.231547244096705893e-02,3.140933023279200015e-02,-1.455956577226550641e-01,-1.441071312673828861e-02,-3.522942647213075235e-02,-3.118715237276824953e-02,-4.957794109260141302e-02,1.850671714313604707e-02,-5.972039230521635628e-02,-2.042358072997364424e-02,-2.559581887316866866e-02,-1.911102547165537124e-02,-7.042681839067761740e-03,-2.739952965550820560e-02,-2.678265085854814043e-01,8.805452084907005109e-03,9.800097030600374293e-02,-1.470303014706238372e-02,-7.130289568689165969e-02,1.714654308222157350e-02,-3.668428582728686105e-02,1.982655046061640772e-04,-1.974216230435851469e-02,-3.025863205204612147e-03,-3.443862612125372317e-03
1.333821955956231704e+03,1.665788541097876987e+03,9.792694287102526687e+02,4.569349045976246998e+03,3.103938394063819942e+03,5.120480051019118036e+03,3.669898879430073066e+03,2.481886822245009171e+03,3.548438998044311120e+03,4.111961063088191622e+03,1.071674169479032207e+04,6.681934631314939907e+03,4.673948147251107912e+03,1.475196411999928932e+04,2.422607358147667128e+03,2.804415893865983435e+03,3.368595090176602298e+03,5.701506665187409453e+03,4.397478506268967067e+03,1.252445995941937326e+03,1.786904835959460115e+03,4.974951487966235436e+04,1.991108152000838118e+03,3.961586275686616773e+03,1.812978779975341240e+04,1.960287514136757409e+03,2.580088014869424569e+03,4.056774009071464206e+03,1.529773000891990250e+03,2.417518482385252810e+03,2.262275777627855859e+03,1.462040473060108980e+03
7.697320830899644761e+01,1.737111044471373873e+02,1.306292065983304269e+02,5.383617810224769755e+02,2.567577925147909355e+02,5.804455937836961539e+02,1.241482793581183870e+02,1.325528185854785477e+02,4.025198584788777225e+02,3.343060082942911322e+02,4.647786295931708764e+02,2.283983347501834089e+02,1.086376071067845999e+02,1.237894267133180080e+02,1.251436469870332786e+02,7.545690260410933092e+01,2.150338952864073292e+02,2.352161641886652887e+02,1.245480470389945538e+02,1.661676216740988252e+02,1.145897238708813433e+02,6.626237130111347824e+02,2.907953343840627554e+02,2.177505739183897049e+02,7.104780675199120878e+02,1.252703504891572663e+02,8.140895812544464150e+01,1.278229631919016811e+03,1.535281833816464427e+02,1.181649138118959002e+02,1.933289872454314775e+02,9.042741772920192034e+01
7.542033508759955396e+01,2.042367547255884119e+02,1.587176707833700675e+02,8.425155936134301555e+02,3.328249257082781583e+02,7.098778526480823530e+02,1.516733802539735052e+02,1.729460703173475622e+02,6.078952078426460730e+02,5.206804990000377984e+02,5.875795424586849549e+02,3.029446432199333117e+02,1.282595826906191974e+02,1.370253065176094083e+02,1.903646198498369984e+02,1.208338448890651051e+02,3.328092814819116825e+02,2.873440469401406858e+02,1.277926953222320350e+02,2.207535884300496321e+02,1.401255873519046418e+02,9.735454522116460794e+02,3.613014471774419576e+02,3.530271436941554271e+02,9.626171144822531005e+02,1.767040283776769627e+02,9.246211979058507779e+01,1.568382617365472925e+03,2.088107491132320774e+02,1.599181832280796414e+02,1.663631317843932038e+02,9.918743894772055114e+01
5.161260958451885728e+01,8.031247700846418525e+01,6.511704230681814920e+01,2.510646871790406180e+02,1.629980798589108986e+02,4.146381904644627525e+02,9.395755765031832141e+01,8.039853431665808614e+01,1.888368147579792549e+02,1.519856525981559230e+02,2.727195639533614440e+02,2.120827555032371095e+02,7.733122880480421202e+01,6.487969611174126783e+01,7.126954562155462725e+01,5.404991805234246982e+01,9.019804830851019517e+01,1.623544545026576316e+02,6.044806669719476844e+01,7.718755869908005707e+01,7.521811205043410098e+01,5.257197265647238282e+02,2.268886226725969095e+02,8.840875903694013971e+01,4.363441877238481084e+02,6.009372897081475173e+01,7.706650016603747133e+01,6.757168818859446446e+02,7.124936676465401320e+01,8.400469158597243791e+01,1.048780664249693046e+02,5.043883872105217137e+01
2.067698255810908847e+01,5.820704225580193025e+01,3.602856677516599859e+01,2.456840302766482864e+02,1.170154086741638793e+02,4.030350200421771660e+02,8.685562048894632881e+01,4.662641843395810071e+01,1.266130959276167971e+02,1.196172932574325074e+02,1.883542254438580414e+02,2.571446256473632275e+02,5.463409132948731894e+01,2.400482356237847270e+01,6.956182290560319359e+01,2.536864045294164072e+01,4.004052503117475936e+01,1.258369786801914358e+02,3.702617725548906691e+01,4.844384650846930640e+01,5.979929004476300491e+01,5.944015263075727944e+02,2.108386951387374495e+02,3.088502222730646096e+01,4.121972213713294764e+02,3.191241513085842385e+01,4.407748743193036489e+01,4.638252107761697403e+02,4.148899566421812324e+01,5.201402996515991362e+01,3.954095334343889334e+01,2.892799690815450120e+01
7.565433772302671400e+01,2.848244007273187890e+02,2.246738701093203190e+02,1.577613388533203988e+03,4.773682567330582742e+02,7.839367268165761971e+02,1.418248287492283737e+02,2.557874002553845685e+02,1.142011153324953511e+03,8.085631261918133532e+02,7.856993792445621239e+02,5.087847042868571066e+02,1.535327483341405070e+02,1.543933982806549068e+02,3.407175653480804272e+02,1.217331257404494096e+02,5.540660248609954124e+02,3.127086923666288385e+02,1.218438512008412573e+02,3.843503323574906858e+02,1.936192800326373344e+02,1.596313752932127045e+03,5.179587786955511319e+02,3.062741484656598914e+02,1.482743090529045048e+03,2.352472783738182898e+02,1.381371642646797682e+02,1.511991744222486432e+03,3.142096385611720279e+02,2.616036561443753499e+02,1.820489197672976900e+02,1.390285265648789448e+02
9.978520003443033248e-01,2.886629036111371338e+00,3.369346620282609006e+00,1.998000609272481043e+01,4.739739699537687478e+00,6.983306337825704979e+00,1.496028586839500241e+00,3.527663320040503425e+00,1.035480058485313570e+01,1.655437567689061851e+01,6.816605775469295914e+00,6.063318610586615698e+00,1.101146167135511389e+00,1.279695550881162491e+00,5.493910802165245855e+00,1.147941356297766058e+00,6.788096619827419964e+00,4.120915126457023625e+00,1.332656493920086227e+00,5.274478890512251716e+00,3.165475788932805568e+00,3.740638048798870585e+01,8.210663495126540923e+00,4.058909217976570893e+00,1.964143233669394206e+01,3.210755566194781085e+00,1.783423931893416414e+00,2.031229279772553298e+01,4.090171438161394057e+00,4.135944280075237067e+00,2.273313560040975734e+00,2.347244547596213149e+00
7.638057091559897864e-03,9.725670667343304376e-03,-1.232037708709847815e-02,-1.928803694581562866e-01,4.073562948025306191e-02,4.258202679131899843e-02,3.373263129942010320e-03,3.217375581200977285e-03,3.005198204669061804e-02,-3.113732004027309763e-01,-6.603685341260910786e-03,-1.150058983094021103e-02,9.566027776820709705e-03,1.637669254019531338e-03,-3.184916545683107170e-02,-2.422032890693285364e-03,-3.336157112211964731e-02,-3.240210868592637797e-04,1.875089656892520553e-03,-4.935956198881975149e-03,-2.663771967353483275e-02,-8.615300221602469055e-02,4.967076965637724079e-02,-1.968180042810449559e-02,-1.908462348227676214e-02,4.532505498174909525e-02,1.019154186934780049e-02,8.118114295981369855e-02,3.985061653864407916e-02,3.284751213645951962e-02,1.993340396926512187e-03,-2.704868668749383157e-02
1.000550470133943122e+03,2.208259910934182699e+03,1.503760556757997392e+03,9.101026370377183412e+03,4.176779443405813254e+03,1.297517434109880378e+04,2.822926310611510871e+03,1.880631378272772281e+03,5.275995001732304445e+03,4.446795448346905687e+03,6.734271215853992544e+03,7.946028965667123884e+03,1.943738848602803728e+03,1.299507797349857356e+03,2.380606391427860217e+03,1.176954808386732111e+03,2.162193959594544140e+03,4.340845846819769577e+03,1.447359707517861807e+03,2.028922635143279422e+03,2.052351147896553812e+03,1.896051599429883208e+04,6.902487545459592184e+03,2.009244030180657774e+03,1.385644345822203286e+04,1.467552533326467483e+03,1.739935318097765503e+03,1.616871367511011522e+04,1.780823775540681709e+03,2.018773736417908594e+03,2.029686041454099268e+03,1.194532780570927116e+03
1.047349343575066030e+02,8.034743296704897375e+02,1.178474272667647398e+02,7.225021369402321625e+02,1.190128685199148890e+02,4.011535996254825704e+02,1.448117523533859412e+02,1.789843342969595312e+02,1.822648513223815314e+02,4.881406722981534472e+02,5.983910259603626400e+02,3.184228447349472617e+02,2.612433920607485334e+02,1.501256506457278306e+02,8.629424771852202980e+01,1.081100412760361422e+02,2.704857994626856907e+02,1.634426313942980471e+02,2.320706806114847041e+02,1.637953303113638412e+02,1.032253034744872053e+02,1.739983509084907382e+03,8.158676878284336453e+01,5.814200936046693187e+02,4.059928346703535453e+02,2.510213204228383859e+02,1.252375500599098075e+02,4.421724149904204069e+02,2.815833046861059188e+02,1.257740254818742329e+02,1.703074935579219868e+02,1.914847732760473207e+02
9.916522459897944941e+01,1.419939342834263471e+03,1.250332712623358020e+02,1.135924072089786250e+03,1.802517506703316883e+02,4.727884881047688168e+02,1.982063480143342531e+02,2.452830617276527221e+02,2.208366131054828259e+02,6.546310623411570759e+02,8.231642022952445359e+02,3.896019102846095166e+02,3.173792982714718391e+02,1.839918900492947103e+02,1.047067947853314962e+02,1.515175363976458982e+02,3.154595576570253570e+02,1.698565993129336391e+02,3.216129637647887307e+02,1.871754955880787463e+02,1.113260102129909370e+02,2.559027907921102724e+03,7.004574720101797425e+01,9.705958588922014769e+02,5.362111212940047835e+02,3.640245962729671874e+02,1.403426843045252781e+02,5.278050000473336922e+02,3.820638239032701904e+02,1.584292104137741433e+02,1.288886191869107449e+02,2.678440256033424589e+02
6.568754484683853434e+01,3.242456594641570291e+02,5.922849591030663419e+01,3.703385705767234981e+02,5.510203241675036168e+01,2.751692819769845642e+02,9.979279453795687971e+01,1.231101965142181740e+02,1.080751999870360294e+02,2.942605653387815323e+02,3.599446210707255318e+02,2.976204404302512216e+02,1.806480406102141671e+02,8.840425691100585937e+01,7.329469057919136787e+01,1.062142485323181660e+02,1.438162451255551844e+02,1.017403825090913898e+02,1.234249268035255653e+02,8.670369755013130941e+01,6.211360052393869324e+01,1.387739220442385886e+03,5.381160045297105654e+01,1.967904642899613066e+02,2.378711194154115560e+02,1.099755745377842970e+02,1.134412049589179361e+02,2.325503949937264849e+02,1.527585300978684018e+02,9.037501788312449946e+01,1.127984285731211997e+02,1.241218944412354546e+02
2.415663731547981996e+01,2.866749301678905226e+02,3.486180645254962229e+01,3.663185839053291488e+02,3.786767507755086370e+01,2.585282308540985241e+02,7.683487816428586825e+01,9.746313026866323526e+01,8.826677677964131874e+01,2.195243019525694876e+02,2.679528062173435501e+02,3.355673954706280142e+02,1.393301913394446672e+02,6.282460252636825260e+01,7.212748230146706874e+01,9.686679427728714131e+01,9.577523865274271486e+01,8.974442747896864603e+01,9.060692332050740561e+01,6.311865396276010642e+01,4.284788679306397796e+01,1.568325812797076878e+03,4.343356861156518534e+01,9.845824829994992911e+01,1.958774924881083166e+02,6.413260124401610085e+01,6.687654710611528230e+01,1.562449656308687338e+02,1.013300795260116018e+02,5.251748085088142659e+01,7.689657372171257066e+01,1.154356413666530017e+02
9.672326151180709530e+01,3.035622610072441148e+03,1.912667951992915789e+02,2.072453735660624261e+03,3.719660553154452032e+02,5.280265371410632724e+02,1.364518161085454722e+02,4.025715144405360206e+02,3.238199902490110276e+02,8.888096815953177838e+02,1.288879573158912535e+03,4.319478808283014928e+02,4.071874607372553783e+02,2.068162818293601504e+02,1.272836717251975927e+02,1.519023496515024192e+02,3.945887319282631438e+02,1.984003140746227416e+02,7.693968043762887419e+02,2.112935213177394758e+02,1.428937515244409724e+02,4.192335484876555711e+03,7.265554378106702416e+01,1.650681530952633238e+03,7.680916473541469713e+02,5.927851384949348130e+02,1.649405818626673010e+02,5.040616646691070741e+02,4.884839627077165005e+02,2.114367230951422130e+02,1.111839789906152021e+02,4.875261802615602278e+02
1.190538443747644504e+00,5.529940046453116764e+01,2.949847263853135892e+00,2.571929932599735480e+01,4.369373529336873396e+00,4.369819720658194129e+00,1.361223515890034541e+00,5.712771363385068746e+00,3.247850186287743579e+00,1.474008148895928549e+01,1.609976118193862504e+01,4.957757952764055176e+00,2.925435057209844647e+00,1.716182723142893884e+00,1.385417587789392169e+00,1.459527548161415611e+00,4.294040966020739702e+00,3.720694911807805649e+00,9.747751295839025332e+00,2.651795933675242356e+00,1.732909746759495828e+00,9.813073618848601143e+01,8.543860293383024329e-01,2.573612090058702506e+01,7.929617272322816213e+00,9.660411658416300895e+00,2.026541045557642917e+00,5.619885199241506868e+00,5.167727090777592736e+00,2.002318713203979694e+00,1.783713390757180051e+00,8.920962627646444432e+00
-7.833585532565730996e-04,-2.295184739562846632e-01,2.175605658639394053e-03,2.359588194116878090e-01,1.789613700471799499e-03,-2.509550410552000010e-02,3.567205430640391344e-03,1.168425328717288478e-02,3.737729069660364334e-02,-2.191429810150977986e-01,8.974241021359424808e-02,-2.940693022006606039e-02,-2.968388782798835751e-02,6.677810520142081485e-03,2.185986632871508156e-02,-1.784123031709253931e-02,1.157614597415700282e-02,8.006565635723984081e-03,7.369917546659264518e-02,-2.506957292914433269e-02,2.323039431306174202e-03,-2.490479739755914745e-01,3.376100358063755229e-03,1.389305596124156827e-01,-1.634587913404155976e-02,-1.470365334659941570e-01,-1.140331430641326922e-02,-2.446777889799236702e-02,-4.221245897025539123e-02,9.433978799981670299e-03,4.296869763421506602e-03,1.231823423979501314e-01
1.250910592495227320e+03,1.185369826421612197e+04,1.377235727853785647e+03,1.317804832978793456e+04,1.634513147038031775e+03,8.400486802317094771e+03,2.662211371138964751e+03,3.359635243821483073e+03,3.098624005080147526e+03,7.787450411315126985e+03,9.655367349998874488e+03,1.041411431867115789e+04,4.810154550767808360e+03,2.251801782573689707e+03,2.300032239445579307e+03,3.209092094594151149e+03,3.575131838386077561e+03,2.984745936463768885e+03,3.469435770599594889e+03,2.262356333021066803e+03,1.544563707561972251e+03,5.004152695388471329e+04,1.455506385148701838e+03,5.436117708206164025e+03,6.811831897684122850e+03,2.968273250166578691e+03,2.537111343862484318e+03,5.464544373129495398e+03,3.705191988333791869e+03,1.984708740083116936e+03,2.738787138342393519e+03,3.974096510615521765e+03
6.523826919009535175e+01,9.771716397393051068e+01,1.136562795713070102e+02,3.077183143823554587e+02,4.459357634498554717e+02,2.262068765605522458e+02,2.076322302231905326e+02,1.667868730163401096e+02,3.054106743306444400e+02,1.193237326901832631e+02,1.746858968321058910e+03,1.391776919626559561e+02,1.582738563907538207e+02,4.844187732434470490e+02,1.499719805593344120e+02,1.755898023554915710e+02,1.869653347293826471e+02,2.086918472083140443e+02,2.079395538244364445e+02,2.129332957495578569e+02,7.778689243162807543e+01,3.964734136943336011e+02,7.386678298869911430e+01,4.957844827368770666e+02,1.028196520841075881e+03,7.705752914799433029e+01,1.181008141075809448e+02,1.765894217663918369e+02,1.883297258141109012e+02,2.564118280532781000e+02,2.746641579587115416e+02,7.998308703072619608e+01
6.253610987349280492e+01,1.288367685962304847e+02,1.326480989732440321e+02,4.431554775084042603e+02,7.289619302053579304e+02,2.397749710490853658e+02,2.983339226388965244e+02,2.403397796117974963e+02,4.497063131897032804e+02,1.669233213870627139e+02,2.263350002837180000e+03,2.392350499544863567e+02,1.885552170889311299e+02,6.956721421189917010e+02,2.325308712665406006e+02,2.645583722346206628e+02,2.798481617012108700e+02,2.409772281511817198e+02,3.147343610715857380e+02,2.894464922719430433e+02,8.852341750119036590e+01,5.241721744382074348e+02,7.425867545203274744e+01,8.893695541277785424e+02,1.393096338428613990e+03,8.896595183717695932e+01,1.293079829182641447e+02,2.085323111067073114e+02,2.516728489328130252e+02,3.326747772053812469e+02,3.048000183819143558e+02,9.086943024150515669e+01
4.714249120008651772e+01,4.553688855381277989e+01,6.365553389900011183e+01,1.445725578749572549e+02,2.095234935932524252e+02,1.296825925138065543e+02,1.406009129717207884e+02,9.098751491431153227e+01,1.432445125740815683e+02,6.894861898012244694e+01,9.817675582312466531e+02,1.206072556470704171e+02,1.098122570959235134e+02,3.124053399557935791e+02,7.738130073568402167e+01,1.262892976483430516e+02,8.126842559418490453e+01,1.314484900779349346e+02,9.987330762434248754e+01,1.171143468008267803e+02,4.714094193742987926e+01,3.143125615344918060e+02,4.853964363685913952e+01,1.810111889610572860e+02,6.176393448958423278e+02,3.457320636803116543e+01,1.047441267497844422e+02,1.078936674009187726e+02,1.013136070883470126e+02,1.736871191338065330e+02,1.371707449490537272e+02,4.909434805517864220e+01
1.748709277457846056e+01,2.885264335582462891e+01,5.448050602996460157e+01,1.136485338932292706e+02,1.636513677653248351e+02,1.172255460592272840e+02,1.324169373660662359e+02,5.996106232816731563e+01,9.544519120332768125e+01,4.530571210866422405e+01,6.391710968245758977e+02,5.002199333982484575e+01,8.176166509885879918e+01,2.783483966148423860e+02,7.534983281045209935e+01,1.105484184455291370e+02,3.676088474498919112e+01,1.029661531104204641e+02,6.718999039828864284e+01,8.102316424294896535e+01,3.466485884923317684e+01,3.418898261828552450e+02,3.585724778040065530e+01,8.191713523656139273e+01,5.605809625533831877e+02,1.551727106950962742e+01,5.719010431911501513e+01,5.838386576027512120e+01,6.468613567816875332e+01,1.072433307031074037e+02,7.646331733766592720e+01,2.684912213475496046e+01
6.322949507234553579e+01,2.153128849300825038e+02,1.989977012626676753e+02,7.222713262293657408e+02,1.623257245800182091e+03,2.474394765011503239e+02,2.469291822750217591e+02,4.117308703918256469e+02,7.912917644920601106e+02,2.121554781102454683e+02,3.158300795847345853e+03,2.149838662445143314e+02,2.299486160923298712e+02,1.055484662421621124e+03,4.071954337333723970e+02,3.288317879612828278e+02,4.702449679347418510e+02,2.806755926206906793e+02,8.079805359444022770e+02,4.603164987061672377e+02,1.190155318834095368e+02,7.838134512395063211e+02,8.500500961688378254e+01,1.424802286804707137e+03,2.109775720651237407e+03,6.850335560083006214e+01,1.463262071202602783e+02,2.077731407788914169e+02,3.723878169301071921e+02,5.277965353659011498e+02,4.027453541344116843e+02,9.491794828989569055e+01
6.836328469028256638e-01,3.544162981855955241e+00,3.445552075550800897e+00,7.669557558531609587e+00,1.998132781083089782e+01,2.340033509575153658e+00,2.073833300883652697e+00,5.842317374760982673e+00,7.248619938028877385e+00,3.101176592316916114e+00,2.930559787194534138e+01,2.329247231707680221e+00,1.684072893129628934e+00,1.421538383836922215e+01,6.485888238856952981e+00,5.025267515348953218e+00,5.591902639781388906e+00,4.797171053674532004e+00,1.010838720912745536e+01,5.934404875281466651e+00,1.821198495366012304e+00,1.736561365033805515e+01,1.139866120450446552e+00,2.234397090152165788e+01,2.661292512657496800e+01,8.317469085639448423e-01,1.691493368385285967e+00,3.690454300367041363e+00,3.872421691951115630e+00,7.847075133389882495e+00,5.427979945948328222e+00,8.994702552288835751e-01
3.224825744841328654e-04,-8.363644456831017399e-03,-1.020332664245271470e-02,5.127322736615696347e-02,3.687823155049097662e-02,-1.769927766917463521e-02,-1.034308915165839914e-02,-3.085555718352759030e-03,5.663191394926979719e-03,-5.075393059007505397e-02,-5.270833489435578639e-02,-1.070327680192815351e-02,1.373246636029992057e-02,-3.326834470006451161e-02,-4.272557052222068080e-02,-6.409631307135219003e-02,-2.625456040362097662e-02,-8.295026836424185604e-03,-7.882261169350603114e-02,2.515977604902382148e-02,2.086862346788746075e-02,1.386451321117648273e-02,9.366995446958336149e-03,-1.296174780386030456e-01,-1.355860188940229138e-02,1.996340668945231767e-02,-6.585350265764991625e-04,-2.239248395688751836e-02,-1.331400710944018358e-02,5.734267854927425911e-02,-2.819475938993272566e-03,3.282180629401325322e-03
9.277664797916838779e+02,1.233933730623107067e+03,1.879189872202488232e+03,4.377155253907777478e+03,6.697827883672301141e+03,3.894965500435172999e+03,4.326950419871424856e+03,2.383612374076007654e+03,3.918565840060259234e+03,1.740006153752584851e+03,2.352459371237203595e+04,2.440190972926462564e+03,2.833337179511707291e+03,9.402687942232350906e+03,2.635929632342389596e+03,3.786071521684438721e+03,1.947652620563186701e+03,3.568438159596978039e+03,2.905580049497931213e+03,3.051374854638706438e+03,1.229027837943826398e+03,1.074297209275171735e+04,1.260715137159958431e+03,4.865898074242873918e+03,1.907069265226941206e+04,7.635176564509365562e+02,2.265669758346675735e+03,2.405540019526994456e+03,2.443982277248305763e+03,4.103651889398944149e+03,3.163896961436492802e+03,1.085345944880365778e+03
9.490005212297974424e+01,1.497532062525563674e+02,3.325413058655706777e+02,8.905764505184433801e+02,1.579250968015847718e+02,2.638838029589635994e+02,2.024564446233400190e+02,1.280934677862676665e+02,2.337954460226051481e+02,2.296185343440127156e+02,9.793111728665431883e+02,2.869987385464395970e+02,9.872975806082449424e+01,2.046564251624236590e+02,1.321611353955461823e+02,1.233406984358966696e+02,1.098540787399619063e+02,1.912304765662879049e+02,2.267060499132026052e+02,1.974025512395209887e+02,9.816155825727365425e+01,7.760399298522204390e+02,1.067303431363012578e+02,4.451198481824703208e+02,2.386991972528212784e+02,1.451566011321041287e+02,8.996189182953101238e+01,5.508917708698307933e+02,1.063109111220741738e+02,7.575646536977552614e+01,2.094244666296953881e+02,1.365617761754945150e+02
9.083916163124715126e+01,1.696161632851868433e+02,4.160713581046931040e+02,1.424856012768100754e+03,1.972540524656246248e+02,1.960852928553809704e+02,2.549450432294638915e+02,1.581019230609792316e+02,3.531733735886815566e+02,3.363854161301354111e+02,1.278764503637884218e+03,3.689951070233209975e+02,1.185971715479313957e+02,2.192373387324299188e+02,1.645210366583561949e+02,2.191057792886163611e+02,1.217706999821217408e+02,2.272541324902793747e+02,3.014396336912334959e+02,2.702647080284910430e+02,1.144035471385458607e+02,1.142441716650433818e+03,9.008517726884534227e+01,7.243287137122705417e+02,3.064929761500171139e+02,1.452935145083421560e+02,1.108913164489449628e+02,6.849341698981673972e+02,1.015024692906345507e+02,1.110597562327606909e+02,1.642045469431087383e+02,1.842283411883456949e+02
4.895813583416403958e+01,4.851868134225775009e+01,1.913959102705706243e+02,4.163843350739779225e+02,9.706874934350489070e+01,1.006742193825316178e+02,1.571203161734046603e+02,8.240986968479501229e+01,9.605269925684206100e+01,1.186221078987086059e+02,5.402746862430685724e+02,2.736952252906723402e+02,7.457090037184244125e+01,9.598285438444099782e+01,1.019100043909083411e+02,8.354439908718309482e+01,7.956326630999588190e+01,1.355699130112785440e+02,1.306531447526231773e+02,1.000607932556413715e+02,5.802518546749978157e+01,5.934314478969449738e+02,9.207464072266854771e+01,1.569473971643164418e+02,1.489314227858599224e+02,5.045495659639372121e+01,7.188901473319026536e+01,2.983083110341448219e+02,4.692711910157628807e+01,5.853724835612555211e+01,9.809777629556730005e+01,8.183648289196720782e+01
2.350577367763275660e+01,3.115664144724225437e+01,1.707641782056038835e+02,4.227754203358404652e+02,6.926406243755833714e+01,9.198155380745535581e+01,1.651317676622543900e+02,5.453579453576740832e+01,6.826475857652613399e+01,8.583995466401026420e+01,3.465768158171802042e+02,3.390081110636650692e+02,6.098658550732433525e+01,6.927698839860157420e+01,1.059427976538418790e+02,5.926900331048376813e+01,5.583977535408877912e+01,1.116457046813771683e+02,9.857819247864543399e+01,6.551197616034509963e+01,4.458748024917127140e+01,6.607463472202940693e+02,8.993196928861746642e+01,7.468786547304205214e+01,1.496269943800972442e+02,2.458938687730788075e+01,5.279676823588302881e+01,2.109901899058849608e+02,3.011667484442195786e+01,3.703908614868338844e+01,3.825989923849686392e+01,7.127328066456675515e+01
7.899313305866670021e+01,2.879090119312120351e+02,6.944977137943336629e+02,2.702783391769368791e+03,3.056404153076128409e+02,2.253947453720073497e+02,2.231282814577927525e+02,2.248469629109559946e+02,7.835347293134664142e+02,4.975127433832770976e+02,1.832080477069536755e+03,6.064595243147236943e+02,1.756392825812847605e+02,3.002586171580568930e+02,2.211611916889048643e+02,1.992564679572093951e+02,1.296580381352252971e+02,2.502117347510087200e+02,5.557694268552726271e+02,4.981478271049592195e+02,1.609084620865998261e+02,1.882418884604296863e+03,7.468003347377276668e+01,1.216143451653849297e+03,4.789715401212341703e+02,1.459487417796873672e+02,1.864298330287171268e+02,7.016049689429461296e+02,1.242811807062548155e+02,2.120171921828951440e+02,1.324591509932483859e+02,3.600402489603818026e+02
1.166292318354683832e+00,5.061114996260923427e+00,1.394183905128014089e+01,3.469075846924431517e+01,3.799416368038085245e+00,2.320642321249754669e+00,1.611316489456839474e+00,3.190083515693561633e+00,7.478256714213876499e+00,8.425962884315664425e+00,1.820934149975732197e+01,7.330196051028003090e+00,1.358391538238676421e+00,3.902518923346635304e+00,3.323532609201855337e+00,2.167096722549264776e+00,1.155297335138896209e+00,3.619610754624149607e+00,7.220018740228333343e+00,6.785365720560350589e+00,2.739322666258893868e+00,4.359011976868817584e+01,8.167769824989434824e-01,1.841698386634231710e+01,6.951472442607845359e+00,1.865847061871259482e+00,2.654279854652116022e+00,1.094533682491008086e+01,1.926714110240807409e+00,4.483151288415553992e+00,1.566426869727082893e+00,7.176957870014413210e+00
-5.851264880093457431e-03,-1.944009383526702772e-02,1.034908315137548877e-02,-3.501082362848252916e-01,2.346313974851292963e-02,-3.839390776986787660e-03,-2.749380770287037767e-03,-2.795956291152036643e-02,-6.273948895185244012e-02,-1.511274411157536024e-01,-5.641207399847569803e-02,-2.192827481860828640e-03,-1.268679912320902492e-02,-1.279961248625627497e-02,3.093104749737092887e-03,1.817130602631479575e-02,-3.820998008029156696e-03,-7.121762779505576638e-04,-4.297929021709655240e-02,-2.156067267570827353e-02,-2.749299636585680884e-02,-1.294495162730279203e-01,-2.347374518664327794e-03,-1.079559021011154141e-01,-8.040795716648594521e-03,1.570641769817924388e-02,1.391294444647489179e-02,-6.074421072755267770e-02,2.112178009927832834e-02,-5.014270645721297798e-02,4.129652676600669738e-03,-9.221945830713326742e-02
1.041718042994650659e+03,1.423795692606503735e+03,5.866884151229966847e+03,1.555770030014049735e+04,2.508732701407920558e+03,3.165440546728421850e+03,5.195514300998902399e+03,1.973627237289493905e+03,3.059193534436895334e+03,3.215232824097392495e+03,1.292643854676902083e+04,1.040731409702613382e+04,2.082931036960107576e+03,2.586754839579687086e+03,3.380220332507131388e+03,2.241524147977469511e+03,1.909099859119579151e+03,3.760373343879903132e+03,3.535588643784445594e+03,2.634401722263088232e+03,1.569927722692973475e+03,2.126072075059547205e+04,2.821727771372521147e+03,4.204691726157731864e+03,4.934291656118171886e+03,1.225052290320173597e+03,1.865643076743042229e+03,7.312053350426941506e+03,1.172527328627326597e+03,1.608260375019206549e+03,1.916984047864870035e+03,2.548447363760898043e+03
1.426740521140571332e+02,1.692395345279611831e+02,2.634764727268782281e+02,1.339501875444498467e+02,1.142445817796840402e+02,2.202831333714233324e+02,2.166704074231061554e+02,1.380218657963702356e+02,4.255252946415116071e+02,7.707336299642521737e+01,7.188253787951640561e+02,1.718874288000165791e+02,1.339730681771681020e+02,1.740036408145781195e+02,2.449145057669354344e+02,1.435181000932076358e+02,1.260416429526907507e+02,1.727776528140269647e+02,1.724571780876631806e+02,1.318650202301102468e+02,1.864664134839665621e+02,5.213515392932388295e+02,9.459684555060077571e+01,3.283532963566470357e+02,6.853152101320148404e+02,1.268846130544837791e+02,1.133669245422291709e+02,1.429921923006880604e+02,1.161048334273038876e+02,1.274319402668758272e+02,3.657479858384186855e+02,1.220593075396743359e+02
1.271316520382940780e+02,2.339314746090136339e+02,3.310840195836174189e+02,1.479524658675858859e+02,1.493805006915745537e+02,2.699840967268711438e+02,3.001045564152334464e+02,1.736897632594827314e+02,6.273348830301929411e+02,9.693728336901055798e+01,9.450112668216653447e+02,2.135772221622805773e+02,1.810993511151472148e+02,2.210387784929081647e+02,3.811660633649310057e+02,2.632380371915472210e+02,1.361959932015846277e+02,1.896699888878461877e+02,2.111183797205814301e+02,1.320407322934752870e+02,2.028283068499281114e+02,7.175751326729586026e+02,7.011536566610185162e+01,4.891216090870900643e+02,9.214683757949233041e+02,1.290440059793994294e+02,1.284620647167170091e+02,1.422808497867923165e+02,1.541538347275983369e+02,1.561713525321254679e+02,4.047996274049085628e+02,1.518589569592262194e+02
6.145093518199583826e+01,6.503159282437084698e+01,1.411855182016244896e+02,5.886458096053140565e+01,6.611277723456976219e+01,7.975261695662860006e+01,1.292157546406995152e+02,7.211328459718298234e+01,1.925572337871912225e+02,4.780215152600990081e+01,4.031676595859627810e+02,1.393027875370629260e+02,9.993225220963196875e+01,9.589924171023000099e+01,1.340059582656764974e+02,9.438417453666194490e+01,7.343527356850488275e+01,1.098741337557158033e+02,7.609509349833696490e+01,4.442239599001570127e+01,1.188628849965573409e+02,3.731662272370098776e+02,5.711034553149790582e+01,1.009665237532361033e+02,4.034019872458882787e+02,4.202854860324622877e+01,8.529989496165063656e+01,6.673096447741954762e+01,5.083457655777550599e+01,9.606679627290668577e+01,1.703161830432473494e+02,7.195837282966162718e+01
2.667653619669994214e+01,4.558327895810187158e+01,9.994976542039854905e+01,4.013483740152240387e+01,4.813302827932201211e+01,6.019708012857748258e+01,1.164609856674465789e+02,4.273532160557678594e+01,1.257167764864711188e+02,3.236518264962115410e+01,2.666698787607599570e+02,1.301369500926527962e+02,9.571580850275537955e+01,5.584153462302145243e+01,1.394202480880725830e+02,7.748985320227535567e+01,3.501293066418487143e+01,8.802422558022097121e+01,5.417608214514326903e+01,2.540013199673031963e+01,8.088039655583474996e+01,3.971253349963844812e+02,4.057320860303253340e+01,4.191032287385198885e+01,3.609853350003986634e+02,1.997153545966605748e+01,4.951191977105678887e+01,3.331648952732561497e+01,3.042310946867387145e+01,5.283189353084168971e+01,1.039707807351239808e+02,4.514991358650277675e+01
1.093423439017220176e+02,4.083291535366331004e+02,5.358829908995444384e+02,2.275945906490933908e+02,2.594709635141809940e+02,2.106005370154865091e+02,2.666377816210899709e+02,2.954998449317773179e+02,1.178909948099748590e+03,9.060027487921281875e+01,1.361292070086915828e+03,1.935093397073491133e+02,3.224670205774073111e+02,2.309458446009426495e+02,6.840309611527214884e+02,2.473260163889756882e+02,1.061041600784264887e+02,2.035123241028115046e+02,5.028950697005091683e+02,6.395534002485974412e+01,2.410100283662711433e+02,1.131666568980236889e+03,5.567670204165538195e+01,6.177741050044184021e+02,1.378234736357397423e+03,7.427884614450874778e+01,1.760433483574393847e+02,1.130463484498592095e+02,1.411769269114519147e+02,2.017239979536447834e+02,5.447000724921988422e+02,2.271075340365872250e+02
1.663596397999161258e+00,6.827411823601281071e+00,9.679360155421074197e+00,2.690652590619824647e+00,3.295999814281568074e+00,2.320999933730119924e+00,2.739072717551690239e+00,4.091165333238953039e+00,1.091023112355670577e+01,9.995388909476411454e-01,1.363924931697102316e+01,1.955817173729693881e+00,2.704353565826938866e+00,1.741475087481621165e+00,1.166868264783463971e+01,3.291211892561422214e+00,1.008148137110334464e+00,3.065800265331676489e+00,6.274865837799362467e+00,9.654487982947647096e-01,3.010867979037708864e+00,2.463780775273238177e+01,6.369910187315527272e-01,9.633877215279069262e+00,1.684904711372714559e+01,9.197830093895972281e-01,2.159407295317762543e+00,2.351249140099963331e+00,1.428722761221239201e+00,1.692725067988338994e+00,7.447356660396955874e+00,4.140542859097775086e+00
-3.061277219936325931e-03,-2.144501322002537527e-02,1.724700557580498717e-03,3.201469275054313890e-02,-1.168741385989956194e-02,-7.769553071625483545e-03,1.544194466059232475e-03,-1.013768609005637721e-02,2.555402206070597065e-02,4.047340884330314780e-04,4.382176822447992476e-02,-1.956794729213254865e-03,-7.747717713004683392e-03,-1.909830008293609670e-03,5.889943039236320704e-02,3.539769137092772799e-02,-1.685390313043183758e-03,5.907715805056568082e-04,-5.051178743884963962e-02,9.753694909421874865e-03,1.591924862453381051e-02,-9.699179283559290765e-02,-1.040117955242164834e-02,-5.053638928611674935e-02,1.005734005454799254e-02,-1.582794935485571861e-02,6.469665632738352476e-03,-9.611587277385650468e-03,4.141791215307779120e-03,-4.092560942314121125e-03,-1.616196749253511269e-02,-5.092164789731608299e-02
1.285809230756142824e+03,1.965408149646641732e+03,3.734966155426226578e+03,1.606611992343481461e+03,1.794847040470165894e+03,2.360768916791462743e+03,3.883205738298269353e+03,1.789624894582986826e+03,5.371272027566315955e+03,1.190562289826457345e+03,9.831000918800751606e+03,4.228223534252299032e+03,3.186526856018624585e+03,2.188672921088490966e+03,4.750015162389459874e+03,2.775698063878498942e+03,1.500105823536538310e+03,3.001499769876926166e+03,2.210222997495177879e+03,1.098044761854200488e+03,2.884939365537590675e+03,1.278176369793353297e+04,1.426508714464293007e+03,2.669548635450852998e+03,1.231896219405338888e+04,1.000979469418319013e+03,1.896745151003673300e+03,1.459052464724960373e+03,1.245908846151840635e+03,2.141407319282185654e+03,4.159651836531521440e+03,1.770542532419901363e+03
1.167873436727045231e+02,8.139751957639336979e+02,1.685998229910277360e+02,9.600718531526720199e+02,1.838954384833786264e+02,2.840280841676218415e+02,1.706506871934618914e+02,1.221769415802038026e+02,6.410637808201627195e+02,1.209343797867086465e+02,9.245699029581491004e+02,2.352235621204159486e+02,9.042272813934725662e+01,1.627395656584981793e+02,1.361807534855612118e+02,8.788760121110995271e+01,1.954929489311327586e+02,2.780639490904367221e+02,1.658771835016896432e+02,1.355491742248377136e+02,1.338492624940027724e+02,8.461822018896099280e+02,9.230112821112579979e+01,8.163146504780881969e+02,1.024587760281014653e+03,2.768747437624986674e+02,6.984696073935333516e+01,2.754322634959631273e+02,1.109493340139177917e+02,1.845954419088365910e+02,1.770765539668410327e+02,1.861612477732609818e+02
1.065453791356026443e+02,1.422454506084396598e+03,1.960815976993505956e+02,1.496768482502919369e+03,2.527977125629861064e+02,3.276194155182904524e+02,2.009350432926003407e+02,1.562664704359540622e+02,1.074271693932982316e+03,1.598233663696167923e+02,1.195315042423101431e+03,2.886966032690003203e+02,1.116632598952094355e+02,2.115173602690336168e+02,2.030369707158495203e+02,1.388923141415991438e+02,2.874618823968859260e+02,3.288412479117000089e+02,2.216150531151302800e+02,1.478103211464465971e+02,1.501481176245583242e+02,1.243775350509905593e+03,8.315134576319864834e+01,1.371669219926294090e+03,1.359930858339706674e+03,4.029688413448914162e+02,7.057025732115523908e+01,3.361267456330059531e+02,1.634395715804604379e+02,2.631026066427651244e+02,1.292497206246453345e+02,2.344757584975966722e+02
6.748773603972455248e+01,3.249383842177673500e+02,9.012805139034765034e+01,4.544678618796991145e+02,1.172994950090983508e+02,2.007355085880689671e+02,1.498417291307883943e+02,7.176358798982312237e+01,2.957780387925458285e+02,7.261661323327243167e+01,5.226362215652319492e+02,2.343247979432575789e+02,6.753756262162313817e+01,9.873912447401097836e+01,8.946672729652379985e+01,7.118021611415888117e+01,9.083917271683003491e+01,1.968266205218973539e+02,7.675657315299568495e+01,6.268305799689598246e+01,8.797409393692194612e+01,6.458927285193279886e+02,7.149631821348211247e+01,2.658613951118011300e+02,5.579228419555281562e+02,1.306297911060688079e+02,6.622380702015981058e+01,1.458258427852268539e+02,4.983896552718306339e+01,1.247089045870160504e+02,9.145386790232460328e+01,9.714896820511009423e+01
2.517837679799445638e+01,2.768926568162460740e+02,6.076546864613546006e+01,4.282128501272410404e+02,9.129602887610001005e+01,2.005492933262700035e+02,1.478651567331884280e+02,4.156452962549627017e+01,2.100643264314797989e+02,5.155421234083956250e+01,3.348911634377346331e+02,2.829976420530652490e+02,5.177379624114491463e+01,7.138114902506569592e+01,8.648093983707227039e+01,4.798449282732014609e+01,3.897471630702376899e+01,1.705000714038797582e+02,5.218080409768408146e+01,2.993055249850199573e+01,6.240370007607901215e+01,7.175375404851455414e+02,6.394667099720393821e+01,1.353748065856391065e+02,4.247499721287853163e+02,8.051212629113847186e+01,3.677007084475853560e+01,9.227152972423746746e+01,2.979860133834615610e+01,7.651293078863359653e+01,3.799445016586820856e+01,7.240421663825460996e+01
1.181626106201012902e+02,3.029164235422263573e+03,3.096496417859354437e+02,2.712347645484033364e+03,4.341240186047024849e+02,3.346762681444535588e+02,1.508026056349366684e+02,2.377984507730738244e+02,2.335835971154748222e+03,1.954260004439702243e+02,1.675893276255472301e+03,3.893157675267892728e+02,1.445295529899242410e+02,2.845980872265907351e+02,3.239670620785470874e+02,1.660206394885530301e+02,4.446508704885379188e+02,4.282909746073547126e+02,3.203767253121565659e+02,1.629223164493056970e+02,1.837125624346264203e+02,2.035665429342913740e+03,7.114197944536915941e+01,2.629221934505762874e+03,1.933352236266012596e+03,6.886563789384771326e+02,7.773053361205244016e+01,3.632363236220594445e+02,2.646016404904718229e+02,4.435548028784741632e+02,1.022213251051691429e+02,3.992346020958363511e+02
1.537749023076527832e+00,5.460132980604197428e+01,5.370412512441961717e+00,3.323039975100493848e+01,5.471868194173330480e+00,2.886154467642478405e+00,1.534933687415762416e+00,3.205274819614105652e+00,2.153506515661576870e+01,3.260451364537091390e+00,1.576265332005029762e+01,4.350158028056204884e+00,1.108974240451116255e+00,3.604795286501599083e+00,5.442199243669937125e+00,1.844107152846409692e+00,5.371396404924301926e+00,8.344184533266529868e+00,3.969120998835225844e+00,2.181633820166564597e+00,2.095923387458427545e+00,4.686209734132199856e+01,7.366759532972290136e-01,4.183120080851312395e+01,1.992521995162926984e+01,1.136256752020705285e+01,8.317540349806785693e-01,5.218925966902236979e+00,3.775749021390916393e+00,7.926226140371197992e+00,1.250815703293319592e+00,7.360463309830810097e+00
5.533817564270469662e-03,2.104540549135196226e-01,-1.534739176239040097e-03,2.984239064998666091e-01,2.608782427255283698e-02,-1.186891655093085494e-02,4.451973263849559083e-03,-9.266904018856124414e-03,1.096390292014520623e-01,4.946096386406814011e-02,2.743338096130047699e-02,2.226780440932887243e-03,8.461631400603101746e-03,5.092493395403473871e-03,2.941769301036387813e-02,1.026898990247261667e-02,-2.495939606013179365e-02,1.008629774343841427e-02,-1.383705107687845104e-02,-1.446452517332452725e-02,1.330955675766661885e-02,1.499380512359919648e-01,1.570383563609330582e-02,2.401785574111367783e-01,-4.001799865815573037e-02,-1.623373097024793099e-01,-2.930057136817763516e-03,-2.257496592187800688e-02,2.763623096630411780e-02,-8.916520905225401583e-02,1.255292914787290576e-02,-9.314258175767919923e-02
1.304694684346042322e+03,1.165219323223932952e+04,2.312727706036477684e+03,1.589232515919201796e+04,3.243488753896010621e+03,6.387748196293288856e+03,4.696172444215328142e+03,1.684165003159058188e+03,9.106955110208617043e+03,1.882039661480190489e+03,1.241156394394947165e+04,8.660707768954622225e+03,1.806602650977755957e+03,2.588547714359390739e+03,2.875770522108544810e+03,1.819239542706636030e+03,2.021395353944462613e+03,5.689626887718277430e+03,2.040399832096315322e+03,1.392938307317738008e+03,2.197770546294018459e+03,2.301361403634382441e+04,2.049484202566098702e+03,7.561016722203398785e+03,1.520951024132034036e+04,3.542272067166541547e+03,1.431504645325380579e+03,3.423089323530646197e+03,1.346589904879909000e+03,3.037066849999574060e+03,1.803052208549991292e+03,2.732578716820414229e+03
4.118715277755639198e-02,-4.481800000726140487e-01,-1.307195711085575307e-01,-1.843490246577781169e-02,-3.387394886271793276e-02,2.335251799005888529e-01,-1.145745974025773606e-01,-2.110942005295785018e-02,-6.899650489174806445e-02,-8.330596235129268667e-02,-4.642421860926981836e-01,-5.170706439000376242e-02,3.459087675304223786e-01,4.344027678519939983e-01,-1.026102609833890178e-01,3.748297810244908407e-02,-1.377692231901821163e-01,1.493317427324445112e-01,3.125122712266273917e-01,7.404629758199182676e-02,-2.720308821488996998e-01,5.087755060327577850e-01,-1.833665952569242252e-01,-2.199640898897767538e-01,7.572999796599164113e-02,9.464077956450180074e-02,1.273743436482645090e-02,2.823726855455543916e-01,-1.770501740404853697e-01,1.600175346390866615e-01,-6.733760952780329118e-04,-4.652099516152687353e-01
8.777514163367354516e-02,-5.343090314195472201e-01,-1.730402336968556998e-01,-6.907459350815817190e-02,-9.277154263465881012e-02,2.463590739466579582e-01,-8.378327388033811329e-02,-7.103206881857629384e-02,-4.201843491399710750e-02,-3.652822581452484785e-02,-4.736412230047871152e-01,-4.760809688227442271e-02,3.583972509886388380e-01,4.564947531412473225e-01,-8.322084873922887260e-02,9.650916575109706741e-02,-1.951659354213974296e-01,1.709491116484402329e-01,4.081667584994458364e-01,1.443426607693275854e-01,-2.730531269952957696e-01,5.185426533926442705e-01,-1.906409178446961394e-01,-2.207128865570503196e-01,7.985162377074947471e-02,8.613433857313260167e-02,2.493695101583329188e-02,3.501385417784914633e-01,-1.978342679389790137e-01,9.256414637246962451e-02,1.099442379704355655e-01,-5.169178521576330843e-01
1.782412376098017615e-01,-4.764945473080991478e-01,-1.832334409132908015e-01,4.825956452550698994e-02,3.872534051367930441e-02,4.139960752591042570e-01,-2.116426200808037283e-01,1.158629225818934710e-01,-2.636122097232288658e-02,-9.864754702645704698e-02,-4.327243773319322528e-01,2.321592750167509114e-02,3.400241674648842860e-01,4.972209893722778218e-01,-7.064880293120646970e-02,1.196146894516663256e-01,-3.932181965740992255e-03,1.723439902670853840e-01,3.749543689211222719e-01,1.287097245488598718e-01,-2.665115727785267730e-01,5.253034817769023368e-01,-1.350678233976436438e-01,-2.372422832820728078e-01,8.477505619696761030e-02,1.439995966254989657e-01,2.534891378809693216e-02,3.719688194278795712e-01,-2.099919303934055514e-01,1.513662209465284625e-01,9.108637316940557116e-02,-5.042592678249724347e-01
9.205476650163087193e-02,-5.618413996169675517e-01,-3.890628534734359434e-01,-4.078997158404597950e-02,2.262966791008324402e-02,5.055940999145628334e-01,-3.312982656249255364e-01,1.452550848278238160e-01,-9.911672376408779423e-04,-3.377688046517962617e-02,-4.090167178874695719e-01,6.590031339116017052e-03,3.381347495841311446e-01,5.817833115699345692e-01,-4.596602814502481066e-02,2.682578893886838900e-01,7.001410383796868864e-02,1.784571122604830529e-01,4.217466210366476731e-01,1.514451729205210928e-01,-2.931097783750132302e-01,5.284713014878326121e-01,-9.514032171515381109e-02,-1.848396144515667694e-01,9.224946319607231493e-02,1.139298871912518968e-01,8.347697620514388239e-02,4.921689215623415992e-01,-1.887292456425647413e-01,4.202881028236418043e-02,1.929914660042016394e-01,-6.469098696995739806e-01
2.640702299959518107e-01,-6.228159674253407330e-01,-1.999561808484875136e-01,-8.923249945840290576e-02,-2.039812911664060369e-01,3.421664352134478615e-01,-2.729368003120618558e-01,-2.075540310563848967e-01,-2.083747285313119688e-02,8.676972601100544150e-03,-4.872417563213699010e-01,-1.766796964200903763e-01,3.871933324822220968e-01,5.169453384764539638e-01,-1.132453179761754719e-01,2.280421160330630970e-01,-3.190116763417206180e-01,1.942189595358098653e-01,3.992533571405705306e-01,3.101049077768541218e-01,-2.780735936717774748e-01,5.230192726908768908e-01,-2.262403530282075248e-01,-1.878398503477689829e-01,8.340319161167619733e-02,1.483077111211564825e-01,4.667243270776622044e-02,4.766469657554134320e-01,-3.125409101599619377e-01,-3.843546238773801194e-02,2.462795796082866973e-01,-6.484259082742974689e-01
2.037307074040775046e-01,-6.409243343259297676e-01,-4.506562318804888112e-01,-6.416170313303916350e-02,-2.543881205256872113e-01,2.437799058346397929e-01,-3.135328295055317960e-01,-2.219884911800623084e-01,-2.204647047274540042e-02,1.329168359958254608e-01,-4.773959904026637280e-01,-1.978475332182212665e-01,2.817877023803936343e-01,5.880660071685674950e-01,-1.532487343237656230e-01,4.549430344390030800e-01,-3.798319279084331757e-01,1.857431899736611547e-01,3.728391499162584388e-01,2.897935508525393278e-01,-3.310953399725902746e-01,5.379892862769892758e-01,-3.517674222094392400e-01,-1.280339790283740453e-01,1.078057742976613054e-01,2.573401668189547187e-01,1.393100595887832027e-01,4.226277488818619421e-01,-2.864469148177485325e-01,-4.863225969409189497e-01,3.412134953876161392e-01,-8.341600142609938429e-01
1.778564729391719779e-01,2.114414984081609550e-01,4.607257828796361698e-01,4.299151684548112584e-01,-4.540676590901557286e-01,6.779839279310344302e-02,-1.389139359247979801e-02,-1.216831732196342469e-01,-1.058409660043368172e-01,2.850575198039858593e-01,-2.787473558663539630e-01,3.299739643780781329e-01,-2.242979728536699524e-01,-3.794133273915921145e-01,-3.058282864938837234e-02,-1.496237664481552265e-01,-2.651110659254834467e-01,-4.036312730926763098e-02,3.663045955341033555e-02,-5.135577500789785532e-02,9.377279638210245238e-02,2.770225021945494359e-01,1.717636168025086230e-01,-4.595027403013676737e-02,-6.075484963154358375e-01,2.915844111513397618e-01,-1.623910840250436249e-01,4.991573894452523974e-01,-2.560600507073853005e-01,-5.231342375076526441e-01,-1.257567926768474453e-01,2.205825912143778156e-01
1.704112878676088683e-01,1.233541193203532282e-01,4.662682799993662641e-01,4.490569880397946578e-01,-5.489619059064669848e-01,-1.003431742115038217e-01,-7.150104249742429696e-02,-1.822928461306820014e-01,-1.125861581074666662e-01,2.962990449277759231e-01,-2.757305373637740087e-01,1.948209088982325587e-01,-2.185043977480123356e-01,-5.007245805396387528e-01,-1.214011635583655130e-01,-8.164454503049985157e-02,-3.960509802313004757e-01,-2.610132649679128281e-02,-1.303707082620483675e-02,-6.785022972805589137e-02,9.101829656192748919e-02,2.930535032455152122e-01,8.677692676156702201e-02,-1.008840811087254596e-01,-6.307946309475032098e-01,2.302489571443835925e-01,-1.297530476812062683e-01,5.218953300055092503e-01,-3.976946953949173080e-01,-4.977431686257861587e-01,-2.732264094928339437e-01,2.618442726378789609e-01
1.763877653017242170e-02,2.879591835379377227e-02,4.950037441739587041e-01,4.623182141399477252e-01,-3.645197187877986522e-01,-1.270283325527681861e-01,4.691963175711640066e-02,-8.150478943925641706e-02,-1.794465133074852059e-01,2.577931898290506396e-01,-2.891324479152365678e-01,3.752098607378859807e-01,-1.901544750133240536e-01,-5.238284803921294808e-01,1.342640827047495433e-01,-1.909991255975286573e-01,-3.756752999823078504e-02,8.237262927351027969e-03,1.206363913607151617e-01,-7.997314851051774698e-02,1.000605867835690221e-01,3.085891433286716556e-01,2.871144098897512320e-01,-7.018052536646771089e-02,-6.090393268324252318e-01,1.827833872869718546e-01,-2.023725306406577717e-01,4.574377854387540743e-01,-3.672659732010894462e-01,-4.882386323442206577e-01,-1.638338274632765434e-01,2.417491704114572149e-01
1.325315000380160035e-01,3.149444910963539179e-02,5.164625083189415822e-01,5.561764172329775047e-01,-4.179520665916862110e-01,-1.201722407775472068e-01,1.053188002975754406e-01,-1.405097761248412791e-01,-1.452782856870433736e-01,3.078293315295983490e-01,-2.944497239042960790e-01,7.211585114619037951e-01,-1.397243988159754813e-01,-5.983449309484197842e-01,1.570089041676135666e-01,-2.894564466349021092e-01,1.350967391565814912e-01,1.896098158329512229e-02,1.672476278791878712e-01,-1.016847041641509575e-01,1.228432739363240489e-01,3.202147792525714132e-01,3.918926411139277977e-01,-4.427259194519692770e-02,-5.789559187969375298e-01,2.096873328774021827e-01,-6.419021562698690175e-02,5.585927615550055902e-01,-3.946731632154583114e-01,-4.856790543913941383e-01,-3.319687791023240853e-01,4.468148179046060320e-01
9.941317912460917450e-02,1.123870048216475542e-01,4.781550297991001841e-01,4.862073822242571897e-01,-6.640966657812481522e-01,-6.551050007596719016e-02,-5.606521734861590056e-02,-2.585644527306346085e-01,-7.722685470932634001e-03,3.393094306614001243e-01,-2.646677720146101143e-01,4.203563577056894096e-01,-1.341785304993690087e-01,-5.353344213550904618e-01,-2.369626801505712310e-01,-1.916166962103785509e-01,-5.599346110885254912e-01,-4.869012355291890692e-02,-1.629082632481622384e-01,-2.884389352736948728e-02,8.833845123125749765e-02,3.089095766402140120e-01,-4.054201309972554901e-02,-5.919196641847953438e-02,-6.324975357286743982e-01,3.123935546400212759e-01,8.143253651304714624e-03,5.335259257873796734e-01,-4.720562757278500277e-01,-4.626308354603356210e-01,-4.615997735586137574e-01,4.165530858168918771e-01
1.986914955931170512e-01,1.673950572153301564e-01,5.624638924145526353e-01,5.704144703331733846e-01,-6.629968717413475821e-01,2.761036610905238595e-02,-1.187385761016363922e-01,-1.895292313112939275e-01,2.019722657202932189e-02,3.980638382071993719e-01,-2.386461757922215821e-01,5.011037250321096481e-01,-1.625978422943878954e-01,-5.624555095938309490e-01,-3.030663694615052250e-01,-2.961018938867976402e-01,-6.302838899923770555e-01,-1.130209350291719456e-01,-1.525998952813808485e-01,-2.995717716571957758e-03,1.232167781074173379e-01,3.655519462101137207e-01,-1.425618218821387562e-01,-1.005558782292924891e-01,-5.947380550334764315e-01,2.825132129042247642e-01,1.698925858752886597e-01,4.727545473206316573e-01,-3.352780879447538331e-01,-2.989409761571132917e-01,-5.076136483738734606e-01,6.819967809288719485e-01
-1.057502038544072820e-01,6.085340122819986597e-01,-2.053600399974015722e-01,7.078963447699525569e-01,2.302016286886763852e-01,1.268116873852814519e-01,-1.230059282540861970e-01,-5.647649184950809254e-02,1.915168727284504158e-01,2.150759886272920474e-01,1.248633958320906484e-01,1.498753272096055023e-01,-1.789737349652150977e-01,-3.492657852312557043e-02,-2.569628547204375058e-01,-2.235757558408115464e-01,2.102000171849311150e-01,2.281722344752248333e-01,-1.573519474310495700e-02,2.003022740459004317e-02,-1.610314123869945324e-01,2.065885054288123801e-01,-1.622132230551773940e-02,3.558305381647463572e-01,1.909415879536345284e-01,3.395763953016399661e-01,-2.348557239433569921e-01,2.983428389784921753e-01,-2.226072124648082254e-02,1.778363643849356079e-01,-3.281495044835494590e-01,1.858390602710133233e-01
-7.709244290579136960e-02,6.728294950562845322e-01,-2.353597019716017757e-01,7.785309396763682166e-01,2.536085109076069988e-01,1.209765784562195634e-01,-1.939993423870338962e-01,-3.494095560673968204e-02,2.558185177077901828e-01,2.449246288406248251e-01,1.166213662007517249e-01,1.448706009976573339e-01,-2.105160171190539331e-01,-3.442584897522815018e-02,-2.741424990919977822e-01,-2.879123790351747481e-01,3.518442600035972534e-01,2.571925543065872177e-01,2.901389886103371979e-02,7.892366434747771775e-02,-1.478187662362878130e-01,2.321738897588475625e-01,6.713824610895718914e-02,3.913863540531684615e-01,1.882748090099723992e-01,4.765004506074744794e-01,-2.769791802845921191e-01,3.878753683363737603e-01,4.432860638853629298e-02,2.338689054187280958e-01,-4.696014404104613127e-01,1.827610910128816546e-01
4.484565460271320442e-02,6.517346453573455989e-01,-2.170330749571443563e-01,7.560608331962876960e-01,2.747332498202905704e-01,4.172438308616259750e-01,5.158069298989468449e-02,-7.354465312120746050e-04,2.113887985190042729e-01,1.995964236686878779e-01,1.297336617827201388e-01,2.459325747971957132e-01,-1.921190479835520049e-01,1.656757663221507595e-02,-1.920152782731072705e-01,-1.249640325764038717e-01,8.468616791071109651e-02,2.815051932607834928e-01,3.087841819721342477e-03,1.688818858975794091e-01,-1.491777542498390896e-01,2.639813260698224417e-01,7.999929624963436625e-02,4.205730889312214171e-01,1.563100790602026946e-01,4.981347801516433638e-01,-1.250178247206519544e-01,3.604779114097760861e-01,-1.206738455953847676e-02,1.288827376187611506e-01,-2.947620807629022233e-01,1.424172136788873222e-01
-2.801425476977950288e-02,7.075246550228425635e-01,-2.429021670424621471e-01,8.172892668267406346e-01,3.017020535207648457e-01,5.238821628448249168e-01,8.481991080733555788e-02,-1.587581117779970690e-03,2.550757170430966725e-01,2.103608750947842665e-01,1.153792806149505079e-01,3.588313080685954226e-01,-2.982760347802734247e-01,1.265539362959808289e-01,-2.266794984244996092e-01,-1.870991555433611508e-01,-7.079525547044337487e-03,3.208126017501599647e-01,-2.425831923609607019e-02,7.594557621783437629e-02,-1.294138938124511917e-01,2.841526414080595697e-01,1.582612067934754951e-01,5.175181147517429192e-01,8.294705196253640556e-02,5.817074591053421617e-01,-1.370544021905180654e-01,4.511554016242391718e-01,-1.925055315634218930e-02,1.740039420011931237e-01,-4.603931011394243877e-01,2.293328425220274303e-01
4.963190403401532974e-02,7.400346596537009658e-01,-2.400684804736746836e-01,8.205144323724328226e-01,2.491445090988325117e-01,2.233858801244930359e-01,-2.479888436510196692e-01,-5.711916428180745936e-02,3.256601438002432736e-01,3.337884071031710920e-01,1.044412161264277744e-01,3.095015184942541686e-01,-3.097132194720589315e-01,4.955747857561015879e-02,-3.216958167211121378e-01,-1.405022723664799966e-01,5.955923809565154547e-01,3.235928584808099306e-01,-2.064647623956647471e-01,3.590460599453106916e-01,-1.352606065487800824e-01,2.414724700932807111e-01,1.093658805411379942e-01,5.816310364608144878e-01,1.756287879772496230e-01,7.076819941656919966e-01,-3.555685019525621771e-01,5.057856709684750429e-01,2.919015158079738548e-01,3.006358098356439745e-01,-6.134513403807879683e-01,2.412456919215944517e-01
-3.798748844055915841e-02,7.655887366448207443e-01,-2.619813592452404083e-01,8.154336516629527853e-01,2.477778860906463820e-01,1.164568096498167227e-01,-2.077440875415849930e-01,-7.464149421523155747e-02,3.284985705981574022e-01,3.740482513572920276e-01,8.824081456952849456e-02,3.373139702139379970e-01,-3.505114310491440621e-01,1.717025515739072916e-01,-3.664785273731170356e-01,-2.354209506611102953e-01,6.444997406814430008e-01,3.681636121523921834e-01,-2.385596746695922699e-01,2.460330448632008227e-01,-2.307366382158599072e-01,2.883242487226903017e-01,8.150354173815786696e-02,5.789152254596997560e-01,1.290099536678710468e-01,7.498975376774612567e-01,-3.655363881302283180e-01,3.109184733743483586e-01,3.668486631498746875e-01,5.561544259592967610e-01,-6.166323675588719633e-01,2.512564574662506378e-01
