-3.907044348740776850e-03,-1.446373818157705438e-01,-3.638434176750319216e-01,-2.159572849168213959e-01,-6.341355249707160413e-02,-1.391590274587445331e-01,7.638202409444970753e-01,-3.058649446631807045e-01,1.662762249103294510e-01,-3.139738868279393635e-01,-2.072040063258573372e-01,-2.352331891376431561e-01,1.008651897725477836e-01,-2.644804003519209967e-01,-1.192434666903367246e-01,-2.599100798584015326e-01,2.286438426847964625e-02,-3.571154438242594709e-01,-3.381011876399805938e-01,-2.303009651406989211e-01,-1.399692949516567753e-01,-1.931899662106709159e-01,1.533486939717886577e-01,-3.823880138610262214e-01,3.726218681145590517e-02,-2.647648871357088929e-01,-2.580085026447087038e-01,-1.583211895097425270e-01,1.548533459530948564e-01,-2.562427685224680229e-01,-2.345025470044513061e-01,-2.761946383338927946e-01,-4.299094608746613089e-01,-4.169699982143991179e-01,-3.105459503560020762e-01,-3.849127640637443060e-01,-7.041532060954519556e-02,-1.931001387977733796e-01,4.787618173771683860e-01,-2.889959976001073017e-01,-2.057446154223279700e-01,-4.615963023944554822e-01,-3.600837244791915692e-01,-3.818220821457473102e-01,-4.317350467124468627e-02,-2.716403089715913599e-01,8.223988243412200250e-02,-5.132449765927992180e-01,2.102813669414453288e-02,-2.294463942543204515e-01,-2.853293377280709531e-01,-3.205403041050035595e-01,-1.179104668444863752e-01,-2.136656341293386718e-01,3.544533691326294811e-01,-4.315592237759396377e-01,-7.065666556421652811e-02,-4.095955135270843983e-01,-4.385201133460107648e-01,-4.743513353114097719e-01,-7.635867546352442803e-02,-2.408941769672436339e-01,-2.514951099754332287e-01,-5.196056669887774149e-01,-7.558816192868522688e-02,-1.603291082087916208e-01,5.789419769379321873e-02,-1.502715650011715587e-01,2.573230494626466691e-01,-2.103680460749091985e+00,3.115362443138229853e-01,2.197715533915860567e-02,-8.956344702843671568e-02,-3.768986496280080645e-01,1.204459216731459809e-01,-1.804340325845696702e+00,-3.214144750026809993e-01,-2.987590939477438590e-01,-3.270003858286383291e-01,-2.617801218084369053e-01,4.947619688694647466e-02,-5.785492295111434036e-01
-3.223500831057516947e-01,-1.344787480628417409e-01,1.331157797324258873e-01,-2.943391415274771994e-01,-1.711780040745065068e-01,-2.381988472968660231e-01,3.400511123503947575e-01,-2.593891339298776688e-01,-2.992643020416859145e-01,-5.361054834640703592e-02,-6.046855393850125542e-03,-1.972863146601792350e-01,4.291983167170475982e-02,-2.145700377660938185e-01,-4.016054590823422976e-01,-2.041963818660255670e-01,-1.473744835196675040e-01,-3.691914584493251050e-01,-1.397523007026204300e-01,-4.495414993070779852e-01,4.449363119287525620e-02,-1.581239955721016333e-01,-7.603233036532706102e-01,-3.930801668287615680e-01,-2.902192431020639285e-01,-1.958633352935298944e-01,-5.089859983356920248e-02,-1.879123452492696689e-01,1.315642774982051233e-01,-2.012063124846931728e-01,-5.184237265232003455e-01,-2.023784617453665002e-01,-6.774501377157680568e-03,2.199586183707810672e-02,-3.136337957296336798e-02,-6.721923931562656662e-01,1.542145854169238717e-01,-2.498168221549958712e-01,1.234220084397660705e-01,-1.216532014958013469e-01,-4.851187358076851641e-01,-1.683754408805656841e-02,1.473153059031283851e-01,-4.330567452546521534e-01,9.673121054038941180e-02,-1.695584686372066663e-01,-5.297145861441776571e-01,-3.436922196531712603e-01,-4.299781734892013096e-01,-4.449505331564167498e-01,-1.188881918434954305e-01,-4.558903192269010973e-01,-3.315974137824756560e-03,-2.449555405626687998e-01,1.078140609161444136e-01,-5.042833113347563456e-01,-3.128605326422004840e-01,-4.175114650607617550e-01,1.567461719465452208e-01,-3.586171208669585719e-01,-3.470366134909454170e-02,-1.636127303003089839e-01,-7.334703297033168257e-01,-2.194652948390671265e-01,1.817355908870455991e-02,8.276068449772916447e-02,-7.771591771081415301e-02,4.372942285933954093e-02,2.425973049621290012e-01,-1.754463253189437466e-01,-5.380519280707125596e-01,-2.855600472599994100e-03,2.283449557513433370e-01,-2.881481030587041969e-01,-4.221087473632569899e-03,1.011723302556170045e+00,1.796840356158267982e-01,2.419221303300115866e-01,4.439250304380257806e-01,1.883217524124909670e-01,-7.102189382184159738e-02,2.208943212067679518e+00
2.742708481041628565e-01,7.227554946578633455e-02,4.250403150793484741e-01,-2.565105389052974028e-01,5.793990532773111157e-01,-1.469381535382176251e-01,-9.358048168925007237e-01,-2.460581563219561840e-02,1.984612944947021507e-01,1.550027400682164880e-01,3.843068114251538964e-02,-2.085307511956580595e-01,-1.554244759796032938e-01,-1.329234970935846138e-01,7.253747253245595994e-01,-9.640153786722513440e-02,3.345800218080376143e-02,-1.330026538162551175e-01,2.927955631358912948e-03,-2.620248299654762691e-01,-1.071188711681494293e-01,-1.175124831789614854e-01,6.995479059877686145e-01,-2.224833939763760093e-01,2.230714589723694630e-01,2.820166623660133598e-01,1.915104296687016316e-01,-1.216004793107733212e-01,-2.304775922812057065e-01,-6.955845493137009783e-02,1.186303439644965652e+00,3.964266675879472845e-02,2.837750005347284832e-01,-1.645168566939499977e-01,2.404554632151854610e-01,-3.858127402300696729e-01,-5.449033341055525836e-02,-1.703905889274320296e-01,6.035744798389678367e-01,1.741800200054384462e-01,4.184181870212946852e-01,-1.519407734345682714e-01,2.036502684852846135e-01,7.674860118712135970e-02,-1.589104048875322750e-01,-2.573101556866140838e-01,1.646767437701752157e-01,-2.286184546257196901e-02,2.772540029166999376e-01,1.492651163797240887e-01,2.514891939348180006e-01,-5.505115936268758503e-01,-2.203636171634825724e-01,-1.431316774971717054e-01,-7.293514445890152409e-01,-7.533775721760042898e-02,5.241648396850261404e-01,3.300396679879563089e-01,6.358013658363789178e-01,-4.456626992294934753e-01,7.551226021959583749e-03,-1.067876273365447881e-02,1.522742414403449152e+00,3.777382503147622139e-01,-1.952801805023315559e-02,2.813792006459720635e-02,-3.322631779536031060e-01,2.752947214266883696e-03,-6.615708888885559746e-01,1.175585950885575104e-01,2.392993196177183590e-01,8.021440813562223660e-02,-4.069962738987425305e-02,2.208714083463502453e-01,-8.677554454568973952e-02,-1.416310480626765456e+00,2.090516890949485063e-01,9.864231488592878350e-02,6.399931245510819267e-01,1.912761534149565734e-01,4.051496833983415091e-01,1.088855454160337910e+00
-6.284293249679493432e-01,-5.366250361786039091e-01,-5.035815819091619128e-01,-4.619301372335595235e-01,-1.777742439954298759e-01,6.047234956540482875e-02,-1.919097582576989591e+00,-6.962023734721455304e-01,-6.677317112305709568e-01,-4.450844076708668773e-01,-4.354799424994914570e-01,-1.236090027921467049e-01,-2.224926112319851601e-01,-2.181327205792553681e-01,2.654178384496435061e-01,-4.156892208450165827e-01,-5.713382627575126493e-01,-4.938796325149218958e-01,-3.195526139684646272e-01,-1.631571965086244802e-01,-4.986761748672458028e-01,-1.376339382383389709e-01,6.620411089612845412e-01,-4.629109125857469587e-01,-6.095809272763852427e-01,-3.622552332017462962e-01,-5.538632763555045857e-01,-7.540363935580045307e-02,-3.392188979299584628e-01,-2.685528678855053086e-01,-1.089298499826514000e-01,-5.326438388174594696e-01,-5.621881153723962132e-01,-3.218255962258046998e-01,-5.543596154162808848e-02,5.804004475404900276e-02,-1.011608260055074510e-01,-2.490308019119359118e-01,-1.661416122641033721e-01,-2.921372120039871650e-02,-5.282707659209491258e-01,-5.019742855326924102e-01,-4.408891164247543681e-01,-1.569801133019891326e-01,-3.239835642301988616e-01,-2.274833052838063085e-01,3.741766886280676885e-01,-4.499154440454429249e-01,-5.267054836365004933e-01,-4.809114425393767323e-01,-6.398831622254157470e-01,-3.817507846279037387e-01,-4.631700298771647684e-01,-9.091724304420889524e-02,1.186989253269207900e+00,-9.100865706646791287e-01,-4.067587772019992109e-01,-4.086904291321726834e-01,-5.860381828510140556e-01,-2.836809126532610081e-01,-3.767772928327312032e-01,-2.471401441369980578e-01,-1.851336953148749742e-01,-7.615157031621274664e-01,-1.027010621839280352e-01,2.416117739567931466e-01,-6.583196541046594519e-02,3.723161736280213296e-01,-1.836775030904834590e-03,-1.606925772967628951e+00,-2.209919824486860154e-02,-2.096657332095480941e-01,-5.199456233634982549e-01,-2.824907190658444422e-01,-1.995670611972084341e-01,4.244173019262230673e-01,1.063855261799088875e-01,1.904180251145158320e-01,-1.482791540842298000e-02,8.540528844137047770e-02,2.920908066974703954e-01,-2.128038116971897598e+00
-4.272961565757345537e-01,7.428635325899717035e-02,-4.935383566921202059e-01,3.044641099852327462e-02,-5.770279773665832890e-01,-8.015731784101283453e-02,9.910598852439052031e-01,-2.703071745376591783e-01,-4.528380689537564452e-01,-3.736902333506921248e-01,-3.665963105823218937e-01,-2.200244147782941806e-01,-7.349271184659826872e-01,-1.045301378199540027e-01,-1.047798028094093947e+00,-4.917539062862689159e-01,-4.764065996277284665e-01,-2.844214306073426513e-01,-4.472213799693569580e-01,-3.375840367753124016e-01,-5.659724362320887048e-01,-9.209172193793774275e-02,-1.243050194966448529e+00,-6.915449165485703098e-01,-5.253165822081841130e-01,-1.777250510331714328e-01,-4.126192277579293632e-01,-1.468578372912538177e-01,-7.163534282515080509e-01,-8.926470402965197559e-02,-1.036693082909682539e+00,-5.168302097933906714e-01,-5.103912469225349025e-01,-2.043565145990832999e-01,-3.818530513487957134e-01,7.635527731231717130e-02,-2.161598852289256523e-01,-1.010683735329322014e-01,-1.043493590002161353e+00,-4.819879290394425420e-01,-5.343363637577418501e-01,-4.212214331790904431e-01,-5.111169110404203408e-01,-3.855559824329283791e-01,-6.901804012546960410e-01,-1.671065494399170404e-01,-5.574351410741753554e-01,-6.617711658327705138e-01,-4.009784778354724688e-01,-2.781556638335095366e-01,-2.425981673091207880e-01,-7.729733393948347020e-01,-6.982246703935913734e-01,-2.025829684364058858e-01,3.976851724255202059e-01,-9.130580807638601915e-01,-4.855865512026221742e-01,-1.310715608029872359e-01,-3.359140381986925328e-01,-7.125587753746424058e-01,-6.271796362228249100e-01,-2.071371501791409442e-01,-4.418865699941325609e-01,-8.690516411975228728e-01,-1.553017676209373643e-01,-5.360848963979898407e-01,4.386789708784626790e-03,-5.697566288131854506e-01,-2.922347146092461601e-01,1.318320432393269188e-02,-6.221885037639084820e-02,-2.297816547981831048e-01,-2.148532139751152259e-01,-7.409513201148802963e-01,-5.191586636790868070e-01,-3.671847231398761568e-01,-2.251174949282999105e-01,3.953955090288494012e-01,-1.873493864195818481e-01,1.661773951676602523e-01,4.004811513477432028e-01,1.199138254594193098e-01
-4.582977385231575829e-01,-4.455888657285383969e-01,-2.471570714029874827e-01,-2.141109770345300256e-01,-1.811394845188958602e-01,-1.180767703492387466e-01,-1.144196823622491532e+00,-4.218468700820737216e-01,-2.814051305259816504e-01,-2.917098380322464823e-01,7.490810717668934526e-02,-1.913745829523624820e-01,-1.585585133663846846e-01,-1.723264894478370168e-01,5.604743184908473896e-01,-2.049022982136478876e-01,-2.257518481926277035e-02,-2.134753210510224042e-01,2.487156973443449826e-01,-1.986972913698134280e-01,-4.515078725310138763e-01,-1.938527937970101200e-01,-4.271845669695721326e-01,-2.188993427895246091e-01,-2.970046563284187702e-01,-2.185932158235669720e-01,-3.874484697106569259e-02,-1.941870292523398267e-01,-1.236507391663124039e-01,-2.346028520657015559e-01,3.595237668178226098e-01,-3.104378017396578482e-01,6.772683395584558341e-02,-1.253369315849564847e-01,2.834276424561811211e-02,-2.185670992894828829e-02,-3.054608261341441588e-01,-2.718817353132986780e-01,9.471711150300995974e-02,-7.098541014936513016e-02,-3.497439313894954438e-01,-2.405683501975410532e-01,-1.732103431405756511e-01,1.554207761566255008e-01,-2.954580207817781440e-02,-5.173643321887524960e-02,1.381397900480417551e+00,-8.848572196421483627e-02,-6.507320144062803680e-01,-3.567538246805958546e-01,-1.129952687263771349e-01,-4.341311345907838265e-02,-2.582328164296930906e-01,-2.226470285400675153e-01,-1.732758668724407314e-01,-4.073622424952219045e-01,-3.106382300411569264e-01,-4.747560141228773789e-01,1.180033093553040091e-01,-3.377405957428816774e-01,-3.997379612118747705e-01,-1.813322645681633150e-01,4.826960004029572371e-01,-2.783579547607954452e-01,1.742094147438108809e-01,3.374603891911693854e-01,3.951876960215356394e-01,-3.065436532359728725e-02,3.436288424709726952e-02,-3.892005075894476862e-01,-3.574832394743908681e-01,-7.186050358587041387e-02,-2.176771830365000493e-01,2.560033028783044173e-01,3.229476121007703870e-01,1.601872261899929040e+00,5.242461669251852197e-01,-1.256864947843834290e-01,3.869937329097537515e-01,-4.864445439054091991e-01,-2.004382987030382257e-01,1.170946702060167377e+00
1.279880761578796808e-02,2.990833499414982666e-01,2.308394632653971157e-01,-3.837548543595378781e-01,-3.483717327987736478e-01,-2.823940169603362249e-01,1.435855184732535150e-01,-1.567687107213778241e-01,5.470112653194426910e-02,1.052207081711822034e-01,-6.313724271117332476e-02,-2.330048969967158379e-01,-6.216528354691083225e-01,1.388531685142157801e-01,-2.570271019152175818e+00,-1.271134019219300471e-01,2.582785994180862854e-01,3.065180120170453160e-01,-2.355803296827458856e-02,-4.296776858288348100e-01,-4.397698493152834565e-01,1.918979762197938754e-01,3.190820056995167242e+00,-2.251598517050427684e-01,1.245098926584001925e-01,3.315442459364114081e-01,-6.804999791130010578e-02,-1.351934974676348988e-01,-5.633290143804290384e-01,9.988504697848060720e-02,-2.084632760905001270e+00,-8.885242664256369494e-02,2.535755317514519214e-01,2.086644210094470986e-01,-5.116890120073838005e-02,-3.759137718929965732e-01,7.435364232476346369e-02,1.210260226665049559e-02,1.776354321285760873e+00,-2.515855207077696831e-01,5.906121777627955094e-01,1.639058992619401300e-01,2.455302206988310004e-02,-3.347758728895631197e-01,-5.719425235160324750e-01,3.456083718721555953e-01,-3.546213953459742552e+00,-8.930133243499210893e-02,6.128465257876405392e-01,3.866355756280172029e-01,-1.451334699554965024e-01,-4.893703730648915062e-01,-5.110748439576959790e-01,1.184339258917829207e-01,2.691385912582633377e+00,-8.548654418622977924e-02,1.593353636569077303e-01,5.521740400710680730e-01,-3.021037251604116181e-01,-4.390005484158869820e-01,-5.363812021709991606e-01,5.632842920704464809e-03,-1.824680409113316859e+00,-3.278933555242800058e-01,1.209692502537410702e-01,-2.791547856810470130e-01,-2.577504369220320890e-01,1.749988598085837066e-01,-4.805493601501644174e-01,1.575591339707594463e+00,2.699733064693227713e-01,-3.281817774008827238e-02,9.188823169284976444e-02,-2.825245148207499168e-01,-6.820724451393849197e-01,8.530118337828935804e-01,-4.054754461417452438e-01,7.848083210146598876e-02,-2.672409791924250100e-01,1.341939573891758608e-01,4.780711601037530151e-02,-5.267612367070406698e-01
2.830187399214429411e-01,5.926172864599537071e-01,3.145484790623007676e-01,6.936321242862995839e-02,5.331989821155056486e-01,-6.734357460822596071e-03,1.297277106920943446e+00,2.986260693176346348e-01,5.434229626954271142e-01,5.373627386901503877e-01,2.254079633285169942e-02,-9.909429869580242689e-02,5.267081881275547106e-01,-1.123280993371049835e-01,-9.572717660413099239e-01,8.503150712810500500e-02,4.647515908234640114e-01,5.343433053303294766e-01,2.786092781978338206e-01,-5.290879629013694324e-02,4.088316546062150669e-01,-5.064612590026913719e-02,-1.565951041483185868e+00,2.253657608043860006e-01,5.881202259882748473e-01,3.562280248805363425e-01,1.817650359434809237e-01,-1.522972641840752463e-02,5.478351167199408955e-01,-1.058908676834596219e-01,-9.513799969570542192e-01,2.525505251912862903e-01,6.510131916058210511e-01,9.303723553705582905e-01,5.019352188537020698e-01,-1.149603446758605818e-01,1.830574130933851074e-01,-1.354338517483609783e-01,-8.415930948093562902e-01,6.873831171699136267e-01,4.472486239312165046e-01,7.889021077042908114e-01,3.263637862286580260e-01,-5.155048984198216944e-02,2.933602580703252305e-01,-1.459595891182920713e-01,-6.041985526478658164e-01,2.108805027444389524e-01,2.606649814727878267e-01,1.279069285942291689e-01,1.477557676135602682e-01,4.784167606225830580e-03,3.127151997307224263e-01,-2.286956975048135832e-01,1.741246027220776926e-01,2.975604751499488776e-01,4.819049981667528626e-01,4.172560760053953821e-01,4.417877114624444435e-01,2.121861189669692893e-01,2.942275050919615498e-01,-1.695109419829199382e-01,-6.518997482930927179e-01,6.232371544880579428e-01,3.578796817749831383e-01,1.489332827261639902e-02,-2.589098041564290020e-01,-2.992518685130668987e-01,1.044582621670108180e-01,-3.133896622172508417e-01,-2.012079772247502563e-01,-1.248963979999771212e-01,-1.298713043095659769e-01,1.114563518453841745e-01,9.755030774407850991e-02,3.440895267089928017e-02,2.596821285450213734e-01,2.319857662254241060e-01,4.755302003055991156e-01,3.308892129242786972e-01,-1.847603655189120897e-01,1.531894293765176718e+00
5.966325542572758350e-02,3.342816222448165009e-01,9.658393031647357629e-01,4.853418028672273343e-01,2.894812731245907655e-01,-2.321253666145513261e-01,3.317776372589884004e-01,6.840692692777244899e-01,4.386985516967601972e-01,1.814012536109548268e-01,4.231214479359716174e-01,-3.398834430452793431e-02,4.947834666170082274e-01,-1.921706909664255281e-01,-4.813776174592664936e-01,2.809983548001902531e-01,3.791072888772792915e-01,8.973279748776767650e-02,6.642313951208127509e-01,5.461524723312035853e-03,4.101272642614024466e-01,-2.185734350830423334e-01,-2.763212538385436678e-01,5.192859169343738701e-01,5.707252346280801136e-01,1.915209086021249785e-01,4.953803414648242365e-01,7.463912384163881586e-02,4.868130316535048130e-01,-1.552545797591024512e-01,-7.197365060913656354e-01,4.352377355337036513e-01,7.069788797496946442e-01,3.230691599749855453e-02,5.786411870392855761e-01,-1.640592058910251838e-01,4.029268568475698892e-02,-2.733352580280825617e-01,6.528573879769709876e-02,4.567090810939157808e-01,1.772299022771893218e-01,4.112676466014263399e-01,7.274097632997718055e-01,1.831584138649808569e-01,2.986487028499129615e-01,-2.368205825196747771e-01,-4.115533954209411177e-02,5.252422850294334866e-01,6.172413587127326684e-01,4.466632615247993487e-01,7.123692196633109042e-01,6.618155827923376533e-01,6.133885552308696587e-01,-1.779257633663379190e-01,5.312370198314286807e-01,9.985007878034568574e-01,9.741339062314728903e-01,3.916080082732006362e-01,7.695354298803117610e-01,5.721439268389640898e-01,3.798460691672739808e-01,-1.320487547126044658e-01,-8.900443956590575745e-01,9.406964126757892952e-01,3.418131219781718189e-01,-2.770235365908337855e-01,-3.668243752954349901e-01,-7.687846766290429290e-01,3.142306436648863444e-01,1.006842948803975540e-01,-3.790012437606396500e-01,3.680824513601505532e-01,2.422367262447174263e-01,6.121051203835258248e-01,2.775840529587608185e-01,8.951219482755358170e-01,4.002009165595166729e-01,-1.992273462098139436e-01,1.909547881164694316e-01,-1.943564819090106144e-01,-5.827087193583152525e-01,7.130668660114790613e-01
-2.268252585197769525e-02,-2.059167464497891065e-01,-2.507980771324839347e-02,-2.884394690532829930e-01,5.696477409343148925e-03,6.391030001964537188e-02,1.698322226132880308e+00,-2.377626467367288110e-01,-7.978708228232148092e-02,-2.993624012972274095e-01,8.280619104052859558e-02,-1.741530924467342770e-02,1.041200447918732563e-01,-2.022959118622888741e-01,-4.561898366428974172e-01,-1.972491806186418839e-02,7.622257940761685557e-02,-1.569481330034931954e-01,3.674206308487756867e-01,1.744456841045792794e-01,-1.218971518460231218e-01,-2.331048242175434160e-01,-1.768157122389132363e-01,1.508793064822654684e-01,-1.122629723587683093e-01,-2.607895636878978518e-01,1.717346630199188817e-01,5.304952372447120645e-02,2.504620154622719808e-01,-1.647982674409585735e-01,-6.952039849765706547e-01,4.215083318534671580e-02,2.093970714271786715e-01,-1.856125426243240562e-01,1.736362953088003980e-01,2.038395004218806206e-01,-3.995390911933595079e-01,-2.564297180682476029e-02,1.562712714276516479e+00,7.532731898713387539e-03,-1.189813220649084680e-01,-2.015984321659315681e-01,2.510973613480310118e-01,1.174479095959287817e-01,5.556416689751277060e-02,-1.814245017992338893e-01,5.788509985998553375e-01,1.887763068698016244e-01,-4.026119787956875667e-02,-1.873615656228465667e-02,6.105344031400915528e-01,5.686401998223650223e-01,2.435624246123412329e-01,-2.341701885067049571e-01,1.126682872198516150e-01,4.819262084178498329e-01,-9.757914680107440675e-02,-6.206408664884765364e-02,4.629038398142704680e-01,1.708672206373668678e-01,-5.074461667495246131e-02,-1.762353880888991864e-01,-5.987810152615220538e-01,2.136630312128985076e-01,-1.218263899185216131e-01,-1.166510367830868866e-01,1.512608157296122802e-01,4.615935185327539880e-01,1.943166336350670570e-02,-1.399265396311831333e+00,-2.630810690285732001e-01,1.491038092397237516e-02,1.156435634110592053e-01,1.558351941207361535e-01,3.660457696262316984e-01,-8.948303764110250302e-01,-1.083192794878876791e-01,-2.396589020295562256e-01,-8.851757814225136300e-02,-6.118720968371251789e-01,-4.158014969744036060e-01,1.675765772593567737e+00
-5.515742173394343473e-01,7.080614812661012447e-02,-3.624551934066813641e-02,-5.402514356183322347e-02,3.503778068710251548e-01,-3.383841397781963689e-01,-2.000229276894368857e-01,-7.146833610805075621e-02,1.339156399945228282e-01,-3.431889610641726887e-03,-2.439710363605186172e-01,-2.201753536454910676e-01,1.019538877832941032e-01,-2.008095312872090754e-01,3.475463942438463683e-01,-2.090819386215398978e-01,-4.890795531543668667e-02,3.198986212663905149e-01,-2.148685744191143610e-01,-4.340602720543511039e-01,-1.157192171970416461e-01,-1.904176031966482996e-01,-5.159700235593671636e-01,-2.719890137597440471e-01,1.394369258650173526e-01,4.241810643631838303e-03,-2.552751906432188522e-01,-2.689245133989774938e-01,1.391252965404735364e-01,-2.110905676885170001e-01,4.621700718890272008e-01,-1.567207860670498110e-01,-4.727902450310694227e-01,1.845920302902642196e-01,-6.559787868069376360e-02,-2.671588910191569077e-01,-1.205234916605647522e-01,-2.645946151079839326e-01,4.168381485061809638e-02,-1.762787573264428809e-01,-5.811944089138971759e-01,-1.922803428453795371e-01,-1.378710311708362946e-01,-4.636039631642633885e-01,6.732350028949331266e-02,-2.660522688736645103e-01,2.469430011061055086e-02,-4.898440582253542064e-01,-3.073214743880001709e-01,-1.473528877015296557e-01,-6.262401979881787595e-01,-7.624816368043404458e-01,-1.811934867808504268e-01,-2.048672129875211967e-01,-2.937566539308059110e-01,-8.058312778952931854e-01,1.330056567266306791e-02,-6.242250658226296267e-02,-5.681325716907086321e-01,-6.509061129698220372e-01,-2.066362873215034091e-01,-2.555071367137137783e-01,-1.865125491831716789e-02,-7.107146330658559163e-01,6.407327643896736369e-01,-1.622964273871714547e-01,-3.966771514583993241e-01,-4.072541098985767993e-01,-3.277148210768835446e-01,1.308622033655006289e+00,-1.373747418061766201e-01,-4.316717708192726599e-01,-6.613738941994126708e-02,-6.785955245627151022e-01,-3.928541947997107875e-02,-2.353483479035708426e-01,5.023856429101549725e-01,2.137863191591219403e-01,-3.625316650882457609e-02,2.482775977795473876e-01,1.666928303272215417e-01,-1.468635293934017705e+00
-1.131343229602912864e-01,3.899969010801487834e-01,-7.241391022938226119e-02,-2.118328320657906494e-01,1.778589482853721315e-01,-1.464189584228212104e-01,7.232143506779912245e-01,-1.106196120211896117e-01,-6.556278898904276120e-02,3.074001263379912419e-01,-2.110700644946471027e-01,-1.941147203219568407e-01,-2.332632164206477898e-01,1.153577381651317742e-02,-1.775171887846667573e+00,-2.112834023137964146e-01,-7.939749161977989467e-02,-3.088854600222154783e-03,-1.415210466224914865e-01,-3.132956443967554461e-01,-2.177456610304593504e-02,-1.392821501377883020e-01,6.453694746622644640e-01,-2.359331669509754925e-01,-3.083965504191584633e-02,5.884066528452948086e-01,-1.943056037858145180e-01,-1.112323937492906423e-01,-3.307265181327216363e-01,3.452396079211919599e-02,-1.737601611252932665e+00,-9.988967400695675236e-02,1.628761316894739575e-01,1.885771735321365439e-01,1.237521069437523963e-01,-5.223176080469351529e-02,1.144613152772547271e-01,-2.337325111285427914e-01,2.783866518129609613e-01,3.289545783663557765e-01,3.946981001753891577e-02,7.235655805797834572e-02,-1.477619847546202958e-01,-4.143932362977625905e-01,-2.144396180705823718e-01,-1.187887147516566710e-01,-7.966276729959805847e-01,-3.829392454083617170e-01,2.744477359835470129e-02,3.859159231285356761e-01,-2.461771694552576661e-01,-3.674225159087847747e-01,-5.212452265350973057e-01,1.822072373408222673e-02,1.983335860234257675e+00,-1.291591487552858630e-01,-1.771842451341449354e-01,1.907740889656893701e-01,3.840556536097747969e-02,9.236895947524716155e-02,-1.699041698823334778e-01,4.557881661907660364e-02,-2.092381527662030116e+00,3.927113817287625208e-02,9.961841274926076795e-02,-1.658272856695645892e-01,-2.053668762425233663e-01,-5.143242930639038701e-02,-3.851464955471919915e-01,8.028869908997681160e-01,-8.971471918820000946e-02,-3.894260380780215774e-02,-3.221639363091081676e-01,-7.226926459970892669e-01,-2.457577194183641900e-01,1.050390855875772855e+00,-2.421879370436865186e-01,-2.846672122693263418e-01,4.648812797505712524e-01,8.002534660810616263e-01,8.207002947377224356e-01,1.257573206833858259e-01
-2.087237593593667118e-01,1.321208223669129156e-01,-1.198010845143422515e-01,1.288257622005314074e-01,2.022164014282589461e-01,-3.237233550561002260e-01,-8.418632584083966808e-02,1.119716172496729991e-03,2.542638332422387237e-01,3.286702426394243481e-01,2.896119107567732276e-01,7.250552702158205021e-01,2.237432806558239257e-02,-6.214292848836031752e-02,-1.267171736822816364e+00,3.452261830468227877e-01,1.566396678939306897e-01,6.184527152365264235e-02,1.314776832565442422e-01,5.001918694392674114e-01,-2.064995422126661428e-01,-1.734328175748167389e-01,2.727103735364473924e-01,3.325548553458280709e-01,8.796712361757767773e-02,2.544979537801388414e-01,1.221568740750270665e-01,6.164131401931951526e-01,2.970344100348012994e-02,-3.640625201499387426e-02,-1.316401418535802170e+00,2.536137473327379488e-01,3.356885155871798254e-01,-9.421878975207242934e-02,3.194374585304424891e-02,4.152536261615951685e-01,6.064497520898667893e-02,-1.246011896658053009e-01,-8.642067301770847143e-01,1.374717239638174326e-01,-1.467652901306780444e-01,-1.735612461526294878e-02,2.844413640451496916e-01,3.842532182360250403e-01,1.730451215627194436e-02,-1.524702314874133158e-01,-5.673173139388121289e-01,1.637055511562874044e-01,2.348919250435409778e-01,1.585144008426835616e-01,1.853862700770845251e-01,7.556627299810272369e-01,8.093849014348222792e-02,-1.427920542885045135e-02,1.684804745130821901e+00,6.300815823555225847e-01,1.055659849722219434e-02,1.457512705694583299e-01,1.646648771712395931e-01,4.172766901452120147e-01,-6.554525095630481246e-02,-6.998573312682655756e-02,-1.279470362799768557e+00,2.514876811589287220e-01,3.947624064096116880e-01,-4.755424590268491486e-02,3.415368791112272651e-01,5.490771353743679750e-01,-3.152757941379832340e-01,1.577159487501699875e+00,-3.078164206451901030e-01,8.877945229801884053e-02,2.544865856345291943e-01,2.089535612524352215e-01,-1.087205866201463172e-01,-9.107701330268794249e-02,-2.079912641800202577e-01,-7.838201208333200887e-02,1.565466091056064504e-02,-6.045090458063103744e-01,-2.466249078945029760e-01,-3.583142759462165094e-01
1.616005032309862921e-01,4.204675778171128586e-01,5.239526243573659758e-02,-2.808897612622556980e-02,1.510784257216155391e+00,-2.157763770667030789e-01,-6.759721539867608042e-01,8.311733498576091839e-02,-1.506843402218375517e-02,8.505059084749967691e-02,2.969356459181562991e-01,1.260310253409125392e-01,1.238692544023541675e+00,-2.015349034240516979e-01,3.126181396961212888e-01,3.049416329393035974e-01,2.452938034315492732e-01,1.209221353470616156e-01,2.818165708927927171e-01,2.098905574594921164e-01,1.244941574456112310e+00,-1.513709381379160224e-01,-7.604824972222560264e-01,4.237102487911496018e-01,-6.805802233395658041e-02,-7.067314266939920576e-03,3.746033458855636544e-01,3.692386425398559990e-01,1.456712995883077566e+00,-2.317262444761412632e-01,2.949866463873450084e-01,5.402909414480512318e-01,9.215399365147114441e-02,3.052246998027237646e-01,6.984857840955289998e-02,-2.494263457346030388e-01,5.747279965002695112e-01,-2.652677623679784019e-02,-1.520074121439610071e+00,1.617372060877974305e-01,3.614860911300182464e-04,-1.132971091034483124e-01,9.341128067646878308e-02,-6.011657995641787877e-02,7.837075206018706552e-02,-2.581816548960888524e-01,1.600647910337867907e-01,-3.645271014042009844e-02,-9.682566990191443512e-02,-1.976204122080972014e-01,6.852118418458939819e-02,5.170110911731015113e-01,8.203129144797869365e-01,-2.006397301092844865e-01,-2.612306032450679161e-01,4.253240016049975036e-01,3.642077308583477335e-01,4.562966097235540697e-01,5.061044044887713644e-01,1.232995220672346681e+00,1.644222977442489242e+00,-2.263181880135453627e-01,6.367671861584900395e-02,1.605922430456524719e+00,-1.774815277827199722e-01,-3.830381567023158906e-01,3.901146022816731063e-01,3.125281258155888087e-01,1.670552512832634007e-01,-1.614538366054714680e-01,-6.684541614119238195e-02,-4.567439388343724760e-01,5.454108739852602666e-02,2.008235394463042112e-01,-4.982665382319270697e-01,-2.043372306220350154e+00,6.506366291313389061e-01,7.808640587561971325e-01,7.088525084975202395e-01,8.897222456244948674e-01,5.783283255426935332e-01,-4.292947333433978496e-01
-3.831789711703383061e-02,-3.787607190885327203e-03,-3.772147702339405662e-01,-3.090644461450409164e-01,-4.536624684854419221e-02,-2.641979794879997234e-01,-4.810390462370024989e-01,-4.108935625352228560e-01,-1.987884456522417409e-01,-2.931523482556974702e-01,-3.468074059311231361e-01,-1.340909321415719169e-01,-2.104998336555393701e-01,-4.011215553854100696e-02,1.371360285507827292e+00,-3.731890270822325606e-01,-2.700967824900424308e-01,-8.657603298214287812e-02,-2.987384177512105166e-01,-2.979852593914589579e-02,-1.758280211086749867e-01,-1.286142161064225131e-01,7.036542564687690016e-01,-2.440119115449534415e-01,-8.013125811142667032e-02,-2.869874446205671337e-01,-2.652024930356143839e-01,-1.256643171657979008e-01,-7.979890890359515876e-02,-6.463858696259255909e-02,1.233495603439892285e+00,-3.180652359053814382e-01,-2.891684636260989996e-02,-2.154133638180142085e-01,-3.285889438102982951e-01,-1.576170980922246556e-01,4.857300807766466028e-02,-1.647980905637991267e-01,-6.360155668581056743e-01,-6.001589076335621664e-01,-8.099779792052229366e-02,-1.134306352565990217e-01,-2.767817232680373496e-01,-1.811816973691043053e-01,-2.763885282352608330e-01,-1.849890986852153751e-01,6.007740224708154608e-01,-2.995973765031427205e-01,-7.209986778112618955e-02,-1.085746674869660366e-01,-1.847536680045005694e-02,-5.602920535969628524e-02,-2.052481824729704141e-01,-1.155674809501840011e-01,-9.632579028040588742e-01,-8.925050632397353578e-02,2.177582744740136633e-01,-2.710547678986200970e-01,-8.414773548224199762e-02,-1.328992463771184844e-02,-1.869363017154703210e-01,-1.535246310599962805e-01,6.879526459269330596e-01,-1.723241339544434314e-01,-1.966729102888470082e-01,-4.308593836341256811e-01,-4.590758330757398892e-02,2.819040195540648552e-01,-2.032001286256538697e-01,1.222363976231655158e+00,-2.120509396802376309e-02,1.835750770135279319e-01,3.489239098695139790e-02,-8.841846624450970527e-02,-3.217760823404215431e-01,-9.987514751327904172e-02,2.573747068670271809e-01,-2.773466533339514206e-01,-2.084488480746108929e-01,4.592971551789083728e-02,-2.479164500845746494e-02,-3.539364654575389291e-01
-3.808169512532125212e-01,-4.911413968141433162e-01,-1.346675900035662898e-01,-1.112438379170989644e-01,-4.769215654397415682e-01,-1.858809949775087345e-01,5.225670284626174888e-01,-2.413345359964915171e-01,-4.100467523574642392e-01,-5.925118339618317131e-01,-5.192345266848616969e-01,-1.943972602864436072e-01,-5.689534157216110666e-01,-1.914047415760915527e-01,4.326025487302667671e-01,-4.431875099095129444e-01,-6.457311708231521230e-01,-3.053965359055260675e-01,-4.657187846999299441e-01,-2.634751249687072305e-01,-3.523395516211670908e-01,-2.316052333075116487e-01,-2.158907322745334256e-01,-4.665545722615570545e-01,-3.516033422391051655e-01,-5.873774093993996415e-01,-6.001627695761734271e-01,-1.541463088321482211e-01,-4.648283094067199861e-01,-2.239179597551811951e-01,-4.027887927795028578e-01,-5.287539228625391940e-01,-6.026386239951473378e-01,-3.162558074673046393e-01,-2.387756822600209106e-01,-1.383002661045902304e-01,-4.149584074966907732e-01,-1.894557384369194297e-01,-5.254970000916014961e-01,-5.466083568324733299e-01,-4.302527429497495226e-01,-5.092875805550355350e-01,-2.300651338001410973e-01,-1.813789658613698119e-01,-4.370549641132039920e-01,-1.533712258301298814e-01,-5.809705289625779479e-01,-3.848165713627800244e-01,-5.607230914881951023e-01,-5.412924432193613189e-01,-5.880712432184757033e-01,-1.383011875102356236e-01,-4.291815667956853653e-01,-1.711263244411345419e-01,-5.220715017107715461e-01,-6.670928231383850271e-01,-4.266734536325220706e-01,-7.091792171191030336e-01,-3.914735925061497146e-01,-1.317940682803724929e-02,-5.504439831712910625e-01,-1.790819738947031226e-01,4.899322441250321125e-01,-5.428814086851094789e-01,-6.829083521072472351e-02,-3.573843362278628782e-02,-5.516300170576149409e-01,-2.260222595304700322e-01,-2.790990661032053399e-01,-2.347393925043919638e-01,2.151722557202495334e-01,-2.215634785915454597e-01,-3.232165203071484492e-03,-1.320955711503798702e-01,4.221367576871515141e-03,4.109820138176065729e-01,8.038658086697876917e-03,-1.718613726237853689e-01,2.984378112194303045e-01,2.602550007671278753e-01,1.181263398022940059e-02,6.654436700571213573e-03
-4.374930018755803229e-01,-4.565372238352139456e-01,-6.828212185675027746e-01,-6.256869936980147262e-01,-6.049467299678632504e-01,-2.850221077811401771e-01,-4.155702303992759306e-01,-8.297421023461057921e-01,-6.961719278421930612e-01,-4.045780725942792477e-01,-5.846762742120380496e-01,-2.208412161811615371e-01,-4.982621331304895596e-01,-2.554678877112950830e-01,9.172379890789882084e-02,-5.529951000262647298e-01,-3.938897925580286397e-01,-4.940530297930721404e-01,-4.117797016125070431e-01,4.529189213289192689e-02,-4.685658534476745962e-01,-2.175131337350926786e-01,-3.294149200842729219e-01,-2.776413310463823891e-01,-4.899086034730824601e-01,-3.911103467772870657e-01,-6.094373257852347958e-01,-3.245841164995811323e-01,-5.578690858414189213e-01,-2.533486235362572558e-01,3.093998859672240642e-01,-6.693738972095615303e-01,-9.308428141353379537e-02,-3.814587295633045105e-01,-2.107653204521775236e-01,-2.810790026794665608e-01,-1.582809585582952150e-01,-9.068858886147489196e-02,1.063965367176318955e+00,-3.984957204050998403e-01,-6.477938283715565237e-01,-6.664065612924073845e-01,-3.989242801739719679e-01,-1.241503168726701273e-01,-5.820171509140328325e-01,-2.006352715414481402e-01,5.673151638378911565e-01,-4.751995137116127865e-01,-1.321802577483291163e-01,-2.488550387611917769e-01,-5.753287344479358634e-01,6.089723131064718464e-02,-6.764093594263490550e-01,-2.118484168509249532e-01,-2.859743363235432434e-01,-4.578237130469212657e-01,-2.204817392658861841e-01,-2.313537265596623260e-01,-5.314534598259015308e-01,-1.523835442266046891e-01,-5.694032929213912464e-01,-2.212001107607213524e-01,2.246594275459903589e-01,-5.910112385002237456e-01,-3.406465529239539602e-01,1.651980476990699276e-01,-7.841578670098220405e-02,6.982370015728437407e-01,2.668851531808976926e-02,-7.114664083851367504e-01,-6.499107483418837816e-01,-3.885619596112891427e-01,-2.417680359312827099e-01,9.443354836361525506e-02,-4.748910243251310281e-01,-8.035050975130615392e-01,-1.693064606084659918e-01,1.898035604930655915e-02,2.315762694063731170e-02,-3.837240737444962413e-01,5.555510740221135668e-01,2.909463673236154305e-02
-3.973873774898880051e-01,-5.135218819471392138e-01,-5.849360854332050774e-01,-3.324966669877464365e-01,-5.218284889645350422e-01,-2.235577662366444174e-01,-6.778885532149585558e-01,-6.524395659580028983e-01,-4.929819623560310893e-01,-3.376848125808904477e-01,-6.140390612786000846e-01,-3.226093420674849277e-01,-4.042340678673460030e-01,-2.376468547510108553e-01,1.362798818775654563e-01,-6.049114789448457596e-01,-2.960634696768467689e-01,-3.602891725468483353e-01,-5.821411242662010155e-01,-3.727684114014339634e-01,-2.553277272975874590e-01,-2.058077444075165074e-01,-4.025431445591505786e-01,-6.744570610494304841e-01,-5.965326773810389893e-01,-1.728118938563712459e-01,-5.341126354785500352e-01,-2.248350885881673922e-01,-3.145307787100516395e-01,-2.113647618715849552e-01,4.742261320377428313e-01,-6.211825733104755498e-01,-1.780835802944482071e-01,-3.276769801813516625e-01,-3.333888166026280908e-01,-9.436808896294376914e-02,-3.278911717006588455e-02,-1.273362025233880923e-01,-9.704440105421400231e-01,-2.755334483660601408e-01,-6.676416217575177336e-01,-3.367192019073541598e-01,-5.101875520935069686e-01,-4.543426023295618621e-01,-2.914231043396394716e-01,-2.414004298922075575e-01,-9.683399820076069031e-02,-7.093915431646015124e-01,-3.660780647000155263e-01,-2.704678981361740009e-01,-3.024193290807563050e-01,-8.002547392506331736e-01,-1.782238751837623980e-01,-2.164315777917909245e-01,-2.058690467784179967e-01,-9.106490506828067710e-01,-4.530253095623677506e-01,-3.575837430420387153e-01,-5.411724875720800298e-01,-8.979022414434197907e-01,-3.268534611671445878e-01,-1.397778936000144134e-01,7.296668992966698353e-01,-8.945459434249423136e-01,-2.012036223868086671e-01,3.409009891415766824e-01,-2.038553272404654004e-01,-1.579929795270184900e-01,1.028320281289066829e-01,-7.963375205108643717e-01,-5.456845258509283036e-01,8.149746865600694667e-02,-2.596230897483708944e-01,-7.917920476755482273e-01,-2.739898439604851466e-01,-1.285138744248146780e+00,-3.341267484755579553e-01,6.986530394100109662e-03,-5.211304354663561789e-01,-1.331981029155019647e-01,-2.632978815621747071e-01,1.447654713028520668e+00
2.235739557628002028e-01,1.352034791347173082e-01,-2.149406730165177859e-01,-4.375205059851321465e-01,3.157685380809706344e-02,-2.417826383895533837e-01,3.472254331645314718e-01,-3.528249339886327385e-01,1.994940661168617679e-01,2.246873238366550729e-01,9.712490681577065632e-02,-2.583794334348388788e-01,3.408407850122726068e-01,-8.640907675957412715e-02,-1.154357241778194876e+00,-6.027624002004544623e-02,7.850760443857154880e-02,2.521808050115363908e-01,7.695874225606037788e-02,-2.102432363292151551e-01,7.064973991625559391e-01,-1.290696105717087094e-01,6.117540451594057904e-01,1.536585810436026656e-02,1.876250033138193440e-01,2.179794919506094497e-01,1.512823528512623472e-01,-3.275101296533607931e-01,3.011205980890880318e-01,6.772457806462720345e-03,-1.591460911952254031e+00,-2.755077876909619791e-02,5.158138357164830656e-02,9.405840293526029905e-02,6.508397431632283459e-01,-4.537603430296566209e-01,2.788906002285083674e-01,-1.642370899113691496e-01,-6.537581783286413595e-01,7.818426138092059441e-01,3.772022181512258987e-01,1.988085394791863358e-01,6.800510940257079029e-02,-4.541861932057831286e-01,7.707052062741853726e-01,-8.901871690379807578e-02,-9.515969730267520577e-01,-2.297844877923344020e-01,5.861259679201074047e-01,5.826577598541040626e-01,6.112171226799244239e-02,-5.468263984176866543e-01,6.759226103284262654e-01,1.969015379971928922e-02,1.901931731630061684e+00,1.458602919760255412e-01,6.291423224398212666e-02,2.423504399341474824e-01,3.131095908770943886e-03,-4.034185430369316983e-01,2.115990603491593736e-01,-5.167966844844038010e-02,-1.400491790495035582e+00,-7.548171964722852345e-02,5.444009374590431244e-02,-1.074014188395409040e-02,4.340487930837977903e-01,2.153900921896872989e-01,2.928521300881197220e-01,9.324719060326213116e-01,3.353471878593132227e-01,3.384061214186277061e-02,-5.429726873574831636e-01,-5.123964218698070505e-01,3.213679484011928711e-01,5.857152145352758632e-01,-4.873365176863402315e-01,-5.240735501192067547e-01,-2.946314921420314925e-02,2.797698103788696655e-01,-8.014926839657057211e-01,-4.208310229895695920e-01
-3.269538323090075971e-01,-5.044995004563874730e-01,-3.152558222275347322e-01,-3.456972808006193443e-01,-2.028906293581068943e-01,9.336099970584542385e-02,1.790788548143410708e+00,-5.100590061302192613e-01,-2.272471742666957173e-01,-8.472984112159638592e-02,-2.891320498917599249e-02,1.066622938197917536e-01,2.375636962170535882e-01,-1.863021024421583349e-01,-5.292295282816810165e-01,-1.532631882818460967e-01,7.983630038357335257e-02,1.519788141484955390e-01,-7.770485273220492650e-02,1.380979315659602580e-01,6.964376306400791444e-03,-1.456097259035002423e-01,5.230026559131227826e-01,4.210002285501156238e-02,-2.692548921435317655e-01,-2.503487971017547276e-01,1.225835753711011361e-01,2.825569351223091719e-01,1.580785870456265230e-01,-2.171887491403097781e-01,-3.945662262499883277e-01,-1.884083193830759784e-01,-2.224573704316401557e-01,-3.878989248929772815e-01,-2.673306822566023921e-01,3.931822207631548993e-01,-3.175146443307447774e-01,-8.193898968446217124e-02,1.190413705564716818e+00,-3.620406101096104723e-01,-1.908045021629286853e-01,-4.073686336131474572e-01,-1.131755469100969719e-01,1.309359034260682841e-01,4.185923004862594499e-01,-9.959919955338160380e-02,-8.999785614360472641e-01,-9.315566856964418649e-03,-2.925150330446892322e-01,-2.341123121126439111e-01,3.677037836474536525e-01,2.461859635321297923e-01,3.071162826575682403e-01,-1.086051325074676582e-01,-9.917376039791505615e-01,7.532771886016345619e-02,-7.136582689874057528e-02,3.047046653728380794e-01,-1.313000806410733745e-01,-1.252360540651634990e-01,-3.594831942883576492e-02,-1.353074462376058773e-01,7.460164018288337751e-01,-2.472715104306766054e-01,-1.914294752600677503e-03,5.820193753037262718e-01,2.734332135798205887e-01,6.246246862939821565e-01,5.479920767039903051e-01,-1.276149240707769694e+00,6.654639884183492782e-02,4.537294836985865387e-02,1.828112639963924146e-01,-5.409430144459221289e-03,7.424472328080579109e-01,3.126039951272349682e-02,2.232464930522531366e-01,6.525675285094320044e-01,-7.963008099783138727e-01,-4.654892120893096008e-01,-6.547453537293194126e-01,-2.153546571735378279e-01
-1.243640673634897609e-01,-2.288162820105043016e-01,-3.171120578753739983e-01,-6.596081722767217770e-02,-3.182130567771895846e-01,-1.801449147886477753e-01,-9.099889679572490397e-01,-2.371533380030873828e-01,-2.357619315954979922e-02,8.513388349887558715e-02,-3.269502874712481352e-03,-7.828553446336937449e-02,5.075473165314695612e-01,-1.597134681371333853e-01,6.640892984530077925e-01,-5.970877813771222585e-03,1.472562365107919491e-01,-1.458649540618970897e-01,-9.204676950269005675e-02,6.689588017914689655e-02,3.879042948840149552e-01,-1.879718308981211117e-01,1.191307008975518167e-01,2.332562078616901360e-02,-1.259299552541860157e-01,-1.412440033887235047e-01,1.856796009306445339e-01,-6.879687674869902625e-02,3.948104336350892196e-01,-1.297780079437573786e-01,9.413617021014443198e-01,1.268422395171473760e-01,-1.451490229230082210e-02,-2.566300461673035049e-01,4.236757309033341301e-02,-3.692370262572253203e-01,-9.212614628480586543e-02,-2.229955012501743383e-01,-3.665413718185613901e-01,-1.005313400791849610e-01,6.250281722744363555e-02,2.862781151448245409e-01,6.127782626531925320e-02,2.115599545057841036e-01,6.999030818068728843e-01,-1.892894117636775286e-01,5.840578060032256547e-01,2.490636608865605395e-01,-1.902840599644623210e-01,3.960436498032986717e-03,3.789796373792427286e-01,4.036174023396307264e-01,6.836252470114464463e-01,-1.182748414593483982e-01,-9.107669611013523570e-01,3.044224094132138014e-01,1.458230406665801115e-01,-1.595184329299217246e-02,1.525157099694890162e-01,1.615358194917369261e-01,1.634931747561829962e-01,-7.734944028800161409e-02,1.138001788851736418e+00,1.848737217804825306e-01,1.178628703387541166e-01,3.622502941382626518e-01,3.287386407504980235e-01,-2.045524839498837066e-02,7.649542506450477397e-01,7.744896310720214561e-02,1.015724838919834644e-01,6.057075482831445479e-01,4.927843803967978803e-02,7.924837340417695275e-01,7.106755912554495458e-01,4.697604724573339330e-01,3.458781183048619812e-01,-1.197774983230531776e-01,-3.033708231051176485e-01,-3.628302312630375948e-01,-9.348409469634293423e-01,4.026553704091028196e-01
-2.760367726107424424e-01,-3.318708307397209567e-01,4.439192593843942214e-02,-3.705494327308925806e-01,6.517611307208561085e-03,-2.275535697020066028e-01,4.026283749167303694e-01,-3.675619019394553710e-01,-1.344839634253032767e-01,-9.735093943599876232e-02,-3.853799999927991909e-02,-1.941025213544603223e-01,-1.074728221614948583e-02,-2.044872591393845918e-01,-4.082275508541489129e-01,-1.731924991268647407e-01,4.515269847285380278e-02,8.226637751960004519e-02,6.162448404891159026e-02,-3.154711639142628865e-01,2.356357390255280071e-02,-1.486068629955621667e-01,-9.097981254714582189e-01,-2.805575583023205422e-01,-7.798912645679526023e-02,-1.453649261217493938e-01,1.434697855782068043e-01,-4.417614925349912409e-03,6.260729612720018766e-02,-2.330388056857430334e-01,-3.213606885283037951e-01,2.330719034011333873e-02,-5.865508930294342782e-02,1.405000501716811012e-01,-7.032414577319274704e-03,-9.010003134792569923e-02,1.140525021491117924e-01,-1.526503304057561239e-01,-7.594668209778301371e-01,-1.246304286731542005e-01,-2.393511399172056908e-01,1.904650813030495105e-02,-3.248292320069482431e-01,-2.163729727072506437e-01,2.835657183010723698e-02,-1.378881311720587810e-01,-6.385813123990113915e-01,-3.779275745911022111e-01,-8.048178889069100561e-02,-1.179416561447636791e-02,-5.932855305870043255e-02,-3.771087985358915207e-01,4.810897670498498480e-02,-1.708228393006736845e-01,5.741895842244572057e-01,-2.960377464650402746e-01,1.485003280365550793e-01,-1.660413466686150585e-01,1.022000253693069322e-01,-3.484682568826656945e-01,6.765441185166792826e-02,-1.471833016449596299e-01,-7.909093611030605375e-01,-8.307359857469769071e-02,2.619564496670093168e-01,2.144647325283104144e-01,-3.304259592178351856e-02,2.331132258607311047e-01,-3.553306824429589700e-02,-1.119125326111609087e-01,-9.106133230005887536e-02,-1.681729945185035657e-01,-3.059188050797635450e-01,-2.308720345543588959e-01,-1.380992439952643813e-01,2.191714547603848262e-01,3.111817786865359592e-01,-1.518275880465179140e-01,2.987732626653313295e-01,5.845645373397898720e-02,6.137576445001761277e-02,4.291489495349682382e-01
-1.131085739521761890e-01,-3.864348455568188123e-02,6.434162517549139038e-01,4.992412398502855675e-01,2.029513456519822442e-02,-7.364293917348396779e-02,1.016340241744333905e+00,5.424140308891997053e-01,4.405069274031570559e-01,1.691205324899584528e-01,2.545314843633494362e-01,-4.509693786268070825e-02,3.732774744464015249e-02,-1.194541316884030202e-01,-9.033040554969864466e-01,1.581933519328877491e-01,5.280967857169159840e-01,-3.580509959302338036e-02,4.885578929936453263e-01,1.832820295473381045e-01,-1.000566483624759501e-01,-1.456667064692094837e-01,-7.684511445438456656e-01,3.288669516895005307e-01,2.997905448053519439e-01,6.077802627836141613e-02,2.973571968026041401e-01,-1.271322147360401666e-01,-7.043190962911909103e-02,-1.018376165961181606e-01,-9.751126599004986684e-01,1.576473921632620678e-01,2.906069155961845674e-01,4.745641221828358902e-02,1.995830723113745653e-01,7.561765614590251761e-02,6.225672678646515523e-02,-1.964471313999961166e-01,4.677430609404157336e-01,1.012276255114478718e-01,-1.685830086481195922e-01,4.879618796533949365e-02,4.105281179127945324e-01,3.083137444680655315e-01,-1.623849970173674717e-01,-1.449484632065152767e-01,-6.410070202255080396e-01,4.094717417220454792e-01,1.247926517714412070e-01,-8.386975294159121352e-02,6.389426344916308842e-02,5.972209250523015100e-01,-2.718889350409823269e-01,-2.023100597315231342e-01,3.630073666448416225e-01,3.215671232753927189e-01,8.026315113152395764e-01,2.808533804547866941e-01,6.015442234709901248e-01,4.209171554360104928e-01,-3.946126309932499257e-03,-2.461520984646255739e-01,-1.505497844386267381e-01,7.392746028341885545e-01,4.900245142492938299e-01,1.941825328532565120e-01,-2.845425257057835888e-01,-8.043933294351014451e-01,1.005916797488689285e-01,-1.159771035433884018e-01,-3.451549176631195093e-01,-9.639402324229297964e-03,3.027750742790080718e-01,6.533587514480452274e-01,-1.281228191436045161e-01,5.362486469606377870e-01,6.063224704257217379e-01,3.810435135205957891e-01,8.795162141733527950e-01,-3.264422307331834583e-01,4.387631922414829688e-01,-1.093249031335684407e+00
-4.060776393757158931e-01,-1.488692538482349892e-01,-3.683526489147732064e-01,-1.980840900346492461e-01,-8.110280053466835393e-02,-2.872422236047837696e-02,1.255772165925014505e+00,-3.947347722202420583e-01,-1.917536639567196111e-01,-1.871549145171113870e-01,-2.856552182919878252e-02,-2.182685265703283861e-01,1.211014205431432400e-01,-2.521935644797176912e-01,-1.213721970582650328e-01,-1.934772877545777037e-01,-3.997887967453212510e-01,-2.722502443096350699e-01,1.772291103424157854e-01,-4.288431917199247434e-01,-9.825640654278562647e-02,-1.411921888179866191e-01,6.449861607141671449e-01,-2.737591209523047575e-01,-2.778763607204581820e-01,-2.988553155623039914e-01,-3.747053689255772091e-02,-1.491127384942384504e-01,5.556673583330935806e-02,-2.991343042260798946e-01,4.476808994107730338e-02,-2.033610493035329370e-01,2.668776024467898189e-01,2.041302108575344221e+00,1.525847052838439355e+00,1.039343194710918628e+00,2.617570453690373444e+00,-2.182235007102988761e-02,1.362226454497620143e+00,1.514233011165648124e+00,-7.878960766773257518e-02,-7.795591858228975712e-02,-1.518519409454546776e-01,-3.841024099837660466e-01,2.537188794485893337e-02,-2.621956801476785781e-01,6.064465419375673905e-02,-4.633566091099117767e-01,-2.589877859286714434e-01,-6.528885700102728291e-03,1.350900381942488349e-01,-4.627506439705148522e-01,-8.025718604227186082e-02,-2.151973043425310927e-01,-2.816159882643161638e-01,-2.773326463913557416e-01,-3.213875498538359410e-01,-2.082847773495211663e-01,1.154106462348710588e-02,-5.517591096395219052e-01,-9.126022016759825772e-02,-2.247087126454050954e-01,2.029524283624338510e-01,-3.449631478077096469e-01,1.107108333747073153e-01,-1.248596908396347460e-01,3.859971433498390891e-01,-1.320268226868328842e-01,2.582899060911423850e-01,-2.029972469413899638e+00,-1.344850547089866954e-01,-7.847428479151415948e-01,-1.086599219507312197e+00,-9.336591666557699787e-01,-1.338973371868058759e+00,-2.134807358082921880e+00,-2.017826432141801574e-01,-3.290394892913398595e-01,-1.567014530670928218e-01,-1.218746833592356249e-01,-6.487261581408970690e-02,2.604701907312335224e-02
5.320226164255333900e-01,-1.036676305368032687e-02,2.087870529812309028e-01,1.595255888311437331e-01,3.142258181800297590e-01,-5.985769293108068878e-02,1.015484659401674206e+00,2.242671187387820508e-01,6.118251748902414633e-01,-1.204014731396059815e-02,4.466756178280621992e-01,-1.959680604632522138e-01,4.562220143763955349e-01,-2.070176229521880074e-01,-3.531181472480732220e-01,2.035016447421505725e-01,5.104858373966968399e-01,-4.210020123227307676e-01,5.261673451380004529e-01,-3.497171290453956471e-01,4.479564036292206786e-01,-2.127846257902057947e-01,-7.627505884520654339e-03,1.310948529922877082e-01,5.044700096374349352e-01,-6.402451966648115000e-02,5.460365780849891770e-01,8.503593567868950043e-02,6.047176291701309436e-01,-2.896280111658665057e-01,6.908052427716998567e-02,4.308667514180503644e-01,2.240037081768245231e-01,-2.596094225667711086e-01,5.024627714163297787e-01,-1.535352692223907189e-01,-1.137711833818169649e-01,-2.552518052606279064e-01,7.892195766650161870e-02,3.738592434806998765e-01,4.632877925167054878e-01,1.354560288977204874e-01,3.217746299674225652e-01,-7.481927646404867849e-02,4.209172372956673236e-01,-1.704312923250516365e-01,-4.469810897802056759e-01,1.591937828948078448e-01,9.487388726984929965e-02,-1.344593933665490515e-01,3.729788404907074528e-01,-2.770113854995997493e-01,4.578688824114335865e-01,-2.063508568992364067e-01,-2.803124557301006625e-01,1.964089844538733851e-02,4.719444910023757878e-01,2.200067435100605262e-01,6.601211391505046322e-01,-2.327373802762343624e-01,5.735414039826867150e-01,-2.402787075897800384e-01,2.721854382569791064e-02,4.666926169186733087e-01,1.160802878756995865e-01,1.103048529674433009e-02,3.650523620503685618e-01,-6.681286590567935280e-01,3.384843920542873752e-01,-1.087555068229152155e+00,2.497370947366196747e-01,4.389957897460328162e-01,-1.140498029752506082e-01,8.701729158849119683e-02,5.884953423863698019e-01,1.089337617227428057e+00,4.989029695032546341e-01,4.670248413225190909e-01,5.277278250050051467e-01,1.048532708077158093e-01,9.147876854889592374e-03,-7.754064610846151950e-01
-1.328601424999457103e-01,1.893258413834756904e-01,1.547034522430085435e+00,3.011217051210423712e+00,4.192664976562647805e-01,-1.442097367830466326e-01,6.740361238618796103e-01,2.676625443981563102e+00,1.388295058217478672e+00,1.289933224756699470e+00,3.310240236875110487e+00,5.349905300759818516e+00,8.103563254480422584e-01,-2.447906762790524604e-01,-1.617181333440449453e-01,6.000562853532636964e+00,3.856888300151087301e-01,7.490720345646756373e-01,2.426419490951459590e+00,4.995258111371011722e+00,5.813586979598950322e-01,-2.248765791722054097e-01,-1.610765201443662975e-01,5.166011221180870194e+00,9.380404724076309986e-01,5.814688954838348467e-01,2.993948699180156048e+00,4.852069291659086403e+00,3.587979230901733874e-01,-1.809944813631965410e-01,-5.876156471263169756e-01,5.043190353987397678e+00,-8.348966051803341504e-02,2.100114846961213810e-01,2.966421555237128138e-01,2.640035476433518991e+00,4.425779162583817761e-01,-2.294066201639215763e-01,2.867326734125128507e-01,1.602190199230720147e+00,5.510996356013417863e-01,6.880188925819389345e-01,2.951057259322018123e+00,4.782861161564992081e+00,4.273478233026085094e-01,-2.400380129319782396e-01,2.427818368967553653e-01,5.077408230915504639e+00,8.503134091913894244e-02,2.153802474803538647e-01,1.208068306644209722e+00,2.881720578663079291e+00,1.258286498879649939e-01,-2.109805740453627732e-01,3.167661361565937139e-01,2.008458183611403491e+00,-1.876603330195218342e-02,6.432216378901460530e-02,7.848991570000261042e-01,3.380958022146749009e+00,2.117368901649854529e-01,-1.436753197391796855e-01,-7.939220493542850088e-01,2.061361066214376425e+00,1.339608093682585377e+00,7.534862477594976848e-01,1.519703079613359487e+00,1.774439208442757820e+00,5.844481876113484242e-01,-1.500347207649740833e+00,5.195763532825334874e-01,3.346571399914016753e-01,1.864468452822334976e+00,2.738678015264745191e+00,6.875168829463250419e-02,-2.025007374463702603e-01,-2.060613943428386552e-01,-2.278838199307771095e-01,-3.440363520637285122e-01,3.262458624551722863e-01,3.855951878499593033e-02,1.278506421223194245e+00
9.034778594964845144e-01,2.644889391342730711e-01,6.644678608281243681e-01,4.677091516948978511e-01,1.446629502325173511e-01,-3.382895665311601574e-01,-8.012845145298336247e-02,6.401699565184872931e-01,8.043523834398642602e-01,5.100018366596421604e-01,4.150962432499288868e-01,4.952617984484165015e-01,4.257402807052302895e-01,-1.685609505730129021e-01,5.279088554819003631e-01,5.749967473929779027e-01,7.340316375432759388e-01,3.264333076363571395e-01,4.174681184610011808e-01,8.032313052677501064e-01,3.344051272362194571e-01,-1.498776811209477366e-01,-8.182753241692745094e-01,8.415870218013038473e-01,8.444813019991009861e-01,3.954157222881620193e-01,5.519268265176260346e-01,6.035261125244856251e-01,3.995266421486795005e-01,-2.750233293221331921e-01,1.153140013678229936e-01,8.161611160793911246e-01,3.902909222687367397e-01,-2.019291346239873459e-03,1.189606159876749336e-01,2.472064212937882255e-01,9.553563021714017028e-03,-2.287107057599648829e-01,-3.092943464271397658e-01,3.392516541022572718e-01,5.101001388955961335e-01,3.097477165275031030e-01,2.146877804772034659e-01,8.425294759074271056e-01,-2.969321940299566448e-02,-1.825699856035247481e-01,5.411712608444221306e-01,8.138950516216651998e-01,3.369423750525787353e-01,3.894029532740830302e-01,4.997733691653803434e-01,1.525507199020208482e+00,3.892970272992098968e-01,-2.328226479985361363e-01,-1.045373107787804651e-01,1.250154968767068775e+00,9.271903507285459423e-01,5.495822151811086131e-01,8.048468591467837774e-01,2.055934550961382445e+00,5.946987273125875495e-01,-2.238646476802541585e-01,1.528316696932774665e-01,1.771374884835239749e+00,-3.822006531854135747e-02,7.420044655419767710e-02,-9.114543225909882418e-02,1.617413740062892680e-01,4.046831048187947699e-01,1.471462755837457337e+00,1.807750652101467181e-01,3.163091208957171108e-01,1.597491851058301937e-01,1.228811851127514343e+00,-4.813871870567438399e-02,6.145547253753732564e-01,5.701421099408496840e-01,-7.746527002621554636e-02,4.915120094762538416e-01,5.418362665479410367e-01,1.415147364483175518e-01,7.753203807654032165e-01
-2.605321856592327304e-02,-2.706202188937679165e-01,1.910545143703950843e-01,-1.132728975182777792e-01,-2.246597493031688431e-01,-1.446669258414862991e-01,-1.001716048640056922e+00,-8.108970079909628981e-02,1.406527919267853421e-01,3.231166101028270510e-01,4.222483877254540330e-01,-4.609345299928836043e-02,4.091189371754064275e-01,-7.818111588197415585e-02,1.065695834260532493e+00,7.640091551991984309e-02,2.294379793178326910e-01,3.820309799058307226e-02,5.577268568401699822e-01,-1.715093871542349713e-01,6.434257312213192970e-01,-2.329321452300242845e-01,-1.859780947286416575e-01,1.383247185870843388e-01,9.075335837178187537e-02,8.367285682883959796e-02,4.326386234217655669e-01,-1.069122314277338726e-01,2.901021532513667900e-01,-5.711127424434220279e-02,1.226060356661100137e+00,1.336032911059880646e-01,2.134489367290348938e-01,-2.450581688071839792e-01,-2.376486984113215795e-01,-1.409641468985158019e-01,4.001401371109259558e-02,-6.401206237249716657e-02,-1.305947368946510645e+00,-3.602692330932045772e-01,1.740421788032419093e-01,1.762389338144248196e-01,2.152362898026411453e-01,-1.549417289068384107e-01,8.771160447316723729e-01,-2.844691863057764031e-02,1.424264946595462877e+00,-6.283249902550325228e-02,5.480624963151699003e-01,2.137900185102881712e-01,5.062202254854175631e-01,-7.554745350293652351e-01,6.246774546762640101e-01,-1.743389363265330227e-01,-4.535962632630597957e-01,-1.666403601910728532e-02,2.861691672197829162e-01,1.276104228792743767e-01,5.443166668296274269e-01,-3.084200636115842775e-02,2.110342418137288734e-01,-2.535202026629416183e-01,-1.324051660843657274e-01,1.612508719733778961e-01,1.932164259417809282e-01,5.518498218409346734e-01,3.087430019838778295e-01,-9.373923492230012977e-02,6.518226547861800668e-01,4.463889629521184954e-01,-6.828433053619635540e-02,5.445331874885070977e-01,4.844214910983343225e-01,-3.100454285667595955e-01,6.260340903538276214e-01,2.912194884343438650e-01,-1.867042154114211538e-01,-1.699157999123172003e-01,1.883800501157155416e-01,1.214285678160668347e+00,-7.279420901439057623e-01,-1.794934819374631063e+00
-3.080926291503098269e-01,2.302754773721178150e-01,-4.473509752483154078e-01,-2.140357498435160877e-01,6.654142027419239491e-02,-2.426501268227697350e-01,3.031088790380965237e-01,-3.261427495749990024e-01,-3.995109886433040880e-01,-2.760652881684336202e-01,-6.043569863113161800e-01,-3.917446760382972126e-01,-5.991311265237383443e-01,-1.904360505297074124e-01,-5.162573481458211377e-01,-5.886411269725301265e-01,-6.360031423989306321e-01,-3.970396400306375750e-01,-3.863653106979808016e-01,-4.175264613966716554e-01,-4.492333447132224600e-01,-1.589242070862191269e-01,-7.457014086851101453e-01,-5.938758991268300313e-01,-3.395335172413608271e-01,-1.256919733108118331e-01,-6.178924254637278013e-01,-4.275003763982102023e-01,-4.714298109074671062e-01,-2.278926896988936746e-01,-3.436466376089923891e-01,-6.094731040138217093e-01,-6.216068182178587920e-01,-1.868866215027493172e-01,-3.249873392734419220e-01,-3.711529859284988797e-01,-1.166208437409501919e-01,8.595107472527716008e-02,-2.146984466515001078e+00,-6.172765531488395574e-01,-3.456627194891872534e-01,-4.250084945171213324e-02,-4.869973674251333873e-01,-5.008243353315225965e-01,-5.132011914265229846e-01,-9.021203260756101294e-02,-9.856638329051086167e-01,-6.503370503888082910e-01,-4.550382484402121230e-01,-2.180109676013105013e-01,-6.511495422348460016e-01,-7.106525075145109227e-01,-5.179496910326396586e-01,-1.914369764391986306e-01,-4.182376294231792135e-01,-8.642140779247287075e-01,4.090695791036843762e-03,-1.312176671250569193e-01,-4.698156383374504919e-01,-6.192401608835713667e-01,-2.236649095545336641e-01,-2.538379551321219285e-01,-1.220086826211430053e-01,-5.648291191878098694e-01,-2.212512965535318177e-01,-5.843187643611819082e-01,-3.633727188176887335e-01,-5.594144524404687235e-01,-8.231742331157557713e-01,2.145134373562753993e-01,3.377173652537522330e-01,2.008944160430425896e-01,-2.200281905554761497e-01,-6.847385179856008142e-01,-3.704909099557304741e-01,-5.734130535507303561e-01,5.521418877822612536e-01,2.165027442499914967e-01,1.970820614944116811e-01,1.930610329632468092e-01,6.600372044375548697e-01,-1.603610167024292821e+00
-6.054423570286979750e-01,-3.476664529572280893e-01,-1.826585004078904728e-01,-2.060062912697942228e-01,-6.264339855519892586e-01,-2.615094939261199958e-01,2.774018820223366766e-01,-3.578213479990802748e-01,-3.711760784958859638e-01,-5.423743579118357472e-01,-3.309851154277500540e-01,-1.639453074850443226e-01,-4.953882454000855390e-02,-2.517292405270962208e-01,-1.018898035488457754e-01,-3.279539101309241755e-01,-5.191095689844181793e-01,-2.464233829871280423e-01,-3.033595742194021283e-01,-4.504905372530802476e-01,-3.000569333168882635e-01,-1.583660100446213914e-01,-7.885526510518247045e-01,-5.114271827850259688e-01,-1.747250219896414880e-01,-3.388835021995483254e-01,-2.218361550496967538e-01,-4.163230953383108279e-02,-8.236624655008586982e-02,-2.878060540648318399e-01,6.669463567616421007e-02,-2.014097862345761158e-01,-4.843719543562240437e-01,-2.642270315996660401e-01,-1.580696036146255201e-01,-4.509678218197368804e-01,-3.718578530550384897e-01,-2.558975647486230742e-01,-1.321301099343401286e-01,-3.880730094017275644e-01,-3.286869524722593194e-01,-3.370122976020706873e-01,-1.455156162547498466e-01,-4.425306047836864987e-01,-1.726828636994157951e-01,-2.360705880885111685e-01,-7.071123782778493405e-02,-3.664584089606984785e-01,-1.716013169141005212e-01,-4.823451395967471300e-01,-4.593903472724606418e-01,-9.335349103993023645e-01,-6.578737441098281291e-02,-2.098257555214721459e-01,-2.510449732841392168e-01,-9.264886393260499675e-01,-2.934012436658341438e-01,-4.651588363592788489e-01,-4.836160805334787649e-01,-6.945035929471771174e-01,-1.464173662423448319e-01,-2.432502373002202178e-01,-1.750518682476578103e-01,-7.464290618488911289e-01,2.381225006099580432e-01,-1.607442114395748189e-01,-2.014066763309935726e-01,-1.002043895513193561e-01,5.867985869438354651e-01,-8.974929423911246484e-01,7.169509148229735729e-02,-8.974674256940712302e-02,-1.451375637531867463e-02,-4.839289696531987595e-01,2.031179955942548632e-01,4.046802249010347241e-01,-1.380204728586364171e-01,2.147311831052331754e-01,-1.770235379628221917e-01,5.497942395679937810e-01,-7.592011361858606866e-02,-7.797069817251177648e-01
-3.496608889782282237e-01,-5.149970777873650318e-01,-1.879685824552334017e-01,-5.328182922683554201e-01,-4.700824898625494686e-01,-2.585257686714688141e-01,2.470602439441872966e-01,-5.514341095821024830e-01,-5.662274838331643467e-01,-7.939997656957971106e-01,-2.253371982555441855e-01,-1.218640446103511910e-01,-2.914943224361074003e-01,-2.031893367211986545e-01,-4.533882043465518596e-01,-3.167974182869511268e-01,-2.803292155381247319e-01,-3.264963763438717415e-01,-1.634339021097395983e-01,5.132091138889702253e-02,-1.584441771961113410e-01,-1.910374086169820962e-01,1.928263689263959579e-01,-9.947296592593483922e-02,-6.026337030007222761e-01,-7.016927471475562506e-01,-2.455812247452484609e-01,-8.342811671835713427e-02,-3.745159739488710393e-01,-2.185259765150007749e-01,-4.059551072406898942e-01,-4.333967799352968497e-01,-4.231797534110202097e-01,-2.417033500364840770e-01,8.063451144981745311e-02,2.459502985459408597e-01,-2.278883909070222868e-01,-2.603067001242021505e-01,9.286736152294360058e-02,-1.532354500122679736e-02,-4.571500366833701201e-01,-4.516644677720644263e-01,-6.428764014380055312e-03,1.526155508609103595e-01,6.849065933154008246e-02,-2.486764758130471376e-01,-1.152362599200039590e-02,-1.537451166674513349e-02,-6.750875046503375110e-01,-5.166165260446005103e-01,7.183633819676545074e-02,5.302633130422098606e-01,-1.459694338088777243e-01,-1.871793882328648406e-01,5.020373639813349165e-01,-4.289162552768685521e-02,-3.512204728864092851e-01,-4.005338895620353945e-01,-1.592766517790810132e-01,9.766912502993874146e-02,-3.382728435952001567e-01,-2.076529424120287237e-01,-4.320970829287625881e-01,-3.379210777822239664e-01,-2.509525515187821521e-01,-2.478066934525775533e-01,-5.414412586198653204e-02,7.332097172094055315e-01,1.513457942482888396e-01,1.969541317104822886e-01,-3.939630802276979094e-02,-2.303409504841899824e-01,-2.856593374054823553e-02,1.997964161286766016e-01,3.448997980109261841e-01,2.522817906589331916e-01,3.969973938050939677e-01,3.083313681341183221e-01,-3.298095987478664726e-01,-6.852275249602414187e-01,-2.893367506746316042e-01,-2.305607003987154568e-01
3.845706468751087376e-02,-1.654469601083762287e-01,-5.977045946106668978e-02,-3.480081295833177824e-01,-6.033285708893291327e-02,-2.680147038102778101e-01,-5.052433109690932511e-01,-3.227975922503707462e-01,3.983925097788280079e-01,-1.631307800875270442e-01,-1.126209564451474826e-01,-3.481332918413643784e-01,-1.163192138847263246e-01,-1.785645443483540318e-01,5.087781556614694445e-01,-2.180591819683036503e-01,1.099414024774336002e-02,-4.380080322139165983e-01,-1.121399914942882436e-01,-3.216503762717984882e-01,9.460369153481477944e-02,-1.162626357852555997e-01,7.913493100574947592e-01,-2.491872420570837854e-01,3.792600812027285828e-01,-7.101266227670315068e-02,-6.738197912592350236e-02,-3.305839682492131004e-01,-8.419528165743922835e-03,-2.038957481385786363e-01,5.079719724185396412e-01,-2.100598951327917463e-01,-1.462807588665833436e-01,1.552354018351107152e-02,5.064649290122883590e-02,-7.549712390295396092e-02,2.207993008139678970e-01,-1.144699922884155757e-01,9.745721876621473712e-01,-5.554702988781162060e-02,-1.293070744624359447e-01,-3.316774043785525317e-01,9.481914877848647213e-04,-3.680102928557719144e-01,-2.963607708994219769e-01,-1.295159773727374841e-01,-7.080824736896235150e-01,-3.574749390197840548e-01,-2.615183923811006395e-01,-4.273715532850815846e-01,3.478735324695094583e-02,-6.186729650994498009e-01,-1.621433357095540262e-01,-5.992081199846213679e-02,-1.312082455288754002e+00,-5.022358357979953558e-01,2.808684680294951108e-01,-7.781753617813466639e-02,4.863086923082646229e-02,-2.288177383235654727e-01,-1.372109464854850691e-01,-3.207592995141699682e-02,1.399761957771387122e+00,-2.502780989694547084e-02,4.885186620722097306e-01,3.887247000317745754e-02,-8.813666385823842875e-02,-2.028574898200695975e-01,-8.147937742932291616e-02,5.740469119427127342e-01,6.661017370602027865e-02,-3.880546246461024085e-01,-2.405125110920714251e-02,-5.995064974507485767e-01,-5.519414826099287019e-01,2.228997870921642366e-02,6.627830819458242484e-01,5.451749761233821712e-01,1.130778378760871790e-02,7.468259033066704244e-01,1.163934720880390079e-02,2.000979052610936393e-01
8.922220930481952750e-02,7.102749868383408105e-02,2.338657318556799591e+00,5.132262676733692075e+00,7.630245598479215019e-01,-1.741249132063890370e-01,-7.886243378698560846e-01,4.997730953630375339e+00,-3.389738663949328212e-01,-2.530886852369865214e-01,-2.699025205038415032e-01,4.061871924687732727e-01,2.571820906405267726e-01,-1.941945921635719330e-01,2.770761042004614150e-01,1.513886885357621226e-01,-2.228704148943163321e-01,-2.225743008110601662e-01,-3.746733354668846383e-01,2.456250366626691606e-01,-3.335577866408039743e-02,-2.032881254617745492e-01,7.643880543163864005e-02,2.226930282180221085e-02,-4.462249585013913222e-01,-3.699182090118336430e-01,-5.581361302333182062e-01,-7.336075757425604416e-02,2.087864208311416281e-01,-2.030247594816733947e-01,3.791069091546651615e-01,-3.673283569262600912e-01,-2.708143573005321048e-01,-9.123704290804775241e-02,-1.533485896827338213e-01,3.611016872460635074e-01,-1.495313648888732527e-01,-2.359997212628902052e-01,2.144000912138270820e-01,-5.777811652483887117e-02,-5.259573307088017957e-01,-5.501837170015465572e-01,-2.607787603831021941e-02,7.636318031805171547e-01,-2.088612114212891335e-01,-1.761171885412575744e-01,6.096851080956241509e-01,4.847379257647712603e-01,-5.520733324682468579e-01,-4.487559724420448481e-01,-6.460291578463471796e-01,-3.054834415560622185e-01,1.362691297590902795e-01,-1.822894595625559611e-01,-3.543154392581382428e-01,-8.181081276210189213e-01,-2.525082374231276128e-01,-3.572572237773783965e-01,-3.385911480363872350e-01,-1.383447010032352320e-01,4.909316299858771937e-01,-2.095013948287446359e-01,1.582316998273441411e-01,-1.914745336155531108e-01,-5.619362355222357053e-01,-4.158788831898903027e-01,-2.507219708525896262e+00,-3.767504017485763246e+00,-3.270309504127063560e-01,-3.514293439012152187e-01,-9.336020194630158253e-02,-4.904975592151758490e-01,1.183869980607624856e-01,1.126776496237090530e+00,2.202432988996954472e-02,7.669461865936486600e-01,3.255224065605272221e-01,2.313915639044774042e-01,4.236382530001881475e-01,3.249871880205276176e-01,2.015408436100092904e-01,-3.684573148615959415e-01
4.389024976016737689e-01,-1.780493006485684981e-01,2.449840097641069886e-02,-4.376788063314902555e-01,1.811427461856222609e-01,-3.101842502849738170e-01,-3.531399523384390338e-01,-2.998136622096304604e-01,-2.508214368184893406e-01,-6.010555091537187478e-01,-3.187721886340137006e-02,-1.481961937039724675e-01,1.792236016743632698e-02,-1.331859081498841246e-01,7.682612484063385816e-01,-1.848015814699780768e-01,1.341519785288111388e-01,-1.971617671792802728e-01,1.025872734823344984e-01,-3.079649367965911488e-02,2.763774632636286088e-01,-1.279046374125107077e-01,6.504658497510193982e-01,6.059514756271054681e-02,-3.384823720000428304e-01,-3.945337250718453648e-01,1.904665095209497339e-01,-1.605491753936709731e-01,-3.937953736700420398e-02,-2.069004068196395041e-01,5.207101046030522262e-01,-6.966820923010735855e-02,3.801356421466291491e-01,-1.847199452373552431e-01,5.202854508384167215e-02,-3.170862899658967726e-01,9.384699308244771887e-02,-2.271245278931840472e-01,2.205668986847408308e-01,-9.305452199980057681e-02,1.826350852921775070e-01,-4.141042541481094741e-01,-7.248118015273997961e-02,-1.339594149443564808e-01,1.021755426890065821e-01,-1.660619392188565357e-01,6.837980365881728417e-01,-1.515255903582873875e-01,-3.825586396291549285e-01,-3.454145733550681441e-01,4.308449742704762442e-01,2.665799131642152542e-01,-2.915801919167859343e-02,-2.190044871867649623e-01,-1.641682110384660997e-01,1.271052072561927315e-01,-6.992174943598156167e-02,-1.389687352908222928e-01,7.095502097855604928e-02,3.734959914519472290e-01,3.491212407050738875e-01,-2.526218448494714774e-01,-1.499052945249792178e-02,2.382374370429428123e-01,-7.201070223120047409e-01,-5.066436257776648633e-01,-8.171211593011422358e-03,4.829994528283556576e-01,-7.861425238617907041e-02,1.277648766835717042e+00,-1.064841392275896470e-01,-2.130806411052050542e-01,-1.006064152204469847e-01,1.061449367762703211e-01,-3.836310620967926278e-03,7.232609383875260312e-01,3.255963685495785187e-01,3.582895471256575259e-01,-5.240056125537845277e-01,1.318313300047267989e-01,3.989973259539777439e-01,-9.961164468634793323e-01
-3.527622533368338087e-02,-3.281936398491823725e-01,-2.771474072477501660e-01,-3.199713574483756262e-01,-2.679181146931861601e-01,-2.124433069660026929e-01,4.270158555550501722e-01,-3.692309002685415509e-01,-3.481694812423176133e-01,-5.069547672578945674e-01,-3.980309600833735750e-01,-1.155695546049841094e-01,-2.253335628791003076e-01,-2.214708309219025339e-01,2.333075317861852960e-01,-3.139790986964114405e-01,-3.387769182412091462e-01,-5.135405727614594795e-01,-4.186088534178395992e-01,7.186897722590464277e-02,-4.135676991430256022e-01,-2.397152369586779130e-01,-1.274170530229116471e-01,-2.664195759505265659e-01,-2.981947286355922655e-01,-5.835940751507151525e-01,-3.047893267129714867e-01,1.696767220928213984e-02,-2.266512108837428763e-01,-2.117541514799247682e-01,4.809244308727963491e-01,-2.773196603736245991e-01,-1.171962203610254771e-01,-3.496749964852590153e-01,3.104742118409298604e-02,1.554487705817947096e-01,-2.538496598704702012e-01,-2.360113176058913909e-01,2.200498618895021796e-01,1.695036810455837484e-01,-2.730015712497017022e-01,-6.181127257018997900e-01,-2.632163998683945683e-01,-8.515437259116258317e-02,-2.186512629111084516e-01,-2.449993388284643359e-01,2.447338278134390532e-01,-3.075936374754574820e-01,-4.527233642569526983e-01,-6.692673524508191418e-01,-3.767090309681404015e-01,1.913529670253046322e-01,-4.210649840599893223e-01,-2.308257097005242120e-01,2.083586938184122661e-01,-4.623943153540280293e-01,-2.677543693759952825e-01,-5.873819582927131133e-01,-4.286161135340024742e-01,1.700814958518858389e-01,-5.462511239631248072e-01,-2.612039949291229957e-01,-8.724749450848014176e-02,-3.837150493835949638e-01,-2.966594133554368296e-01,-1.281298556292443658e-01,-2.276008354356448549e-01,3.399779104961845322e-01,-8.543797481229112659e-03,-5.236582346633010809e-01,-1.125701381474503160e-01,-3.189301266957063619e-01,-3.035000481018014784e-01,-1.241906866038673951e-01,7.804615468219956720e-02,-2.253209271441297956e-01,1.432242183302658012e-01,3.515610774535165572e-01,-1.631321193336695841e-01,-6.947249255205736884e-02,3.529751393037593166e-02,-1.198187452628860283e+00
3.723576488519262373e-01,2.503138861561589046e-01,3.470801940661930596e-01,-3.597974166252840833e-01,2.524299669402031709e-02,-1.111115669747022167e-01,-1.216338986763621621e+00,-2.652168663104600629e-02,6.850974606348130269e-01,2.641463648885183368e-01,3.600368725317346641e-01,-6.745950117677154689e-02,-1.454696130567008083e-01,5.796422500700276759e-02,1.952684157340447424e+00,1.848785195361867251e-01,3.140661531909406667e-01,-8.507156734946606791e-02,7.328221811608003344e-01,1.610298601407037511e-01,2.020694634760050457e-01,-4.161667077146090354e-02,-1.611942700266405737e+00,5.615563392928636377e-01,8.043980479283050489e-01,2.892885739378078247e-01,3.705113378670946145e-01,-1.707519174607050397e-02,-1.004401703964907244e-01,3.161023516080794377e-02,1.747158206369971101e+00,2.555120683807405313e-01,7.177018967243832259e-01,-2.772664441182242506e-02,3.545741576182591115e-01,8.460567790300234370e-02,5.489742556091056075e-02,-2.519142772384611595e-01,1.678294597854694536e-01,2.637285178071539504e-01,6.992024898244441067e-01,1.864720621991725891e-01,6.486025031818527520e-01,-9.448103623899046372e-03,-1.614550823005192481e-01,1.027667420904723738e-01,2.296073491184531079e+00,3.388985081208998329e-01,3.475500968517111766e-01,9.099506215433066092e-02,8.541106495113374997e-02,6.738547082658800091e-01,-1.148084313111369555e-02,1.729439214570389211e-02,-1.863208480931876965e+00,4.509070947981020372e-01,2.160186623762858360e-01,3.138015871145459768e-01,1.507011390096614223e-01,5.839328130152438012e-01,5.352280684643041520e-01,8.330607345686759369e-02,2.141502730083736150e+00,5.965843264251288192e-01,3.674509272115305536e-01,3.238057673864987163e-02,1.807532279010202469e-01,5.442912865114812870e-01,-7.514753163570941918e-02,8.019512664441734717e-01,2.921854958441404571e-03,2.135146112863300916e-01,3.519234931801592525e-01,6.601295926429887051e-02,-1.273105340666415564e-01,1.577918935331147132e+00,-7.733379661985431697e-02,1.778081478804671434e-01,1.330397185913632097e-01,-1.998251118080643651e-01,7.444713642803811871e-01,2.983114145096670278e-01
5.213254160841704898e-01,6.024897160927111459e-03,2.143812237324282388e-01,-4.299947654120128138e-01,4.883375416625378440e-01,-3.351540786751391332e-01,-2.274363420636074662e-01,-1.537522233017767359e-01,2.238545008961037586e-01,-4.892579965282478072e-01,-7.513767978914200063e-02,7.769055793151017492e-03,-2.945704137519334354e-01,-8.304504342001892137e-02,1.118496741765647506e+00,-7.610181035593102661e-02,3.189079474599644248e-01,7.125440981012512442e-02,8.760379003743985760e-02,-1.253715455361379683e-01,-1.753158986136881536e-01,-3.606869351613792296e-02,1.436490829180003370e+00,-5.698458689248218217e-02,1.954950286314371954e-01,-3.554656924293571052e-01,-1.175560256887501764e-01,6.703791196471775224e-03,-1.695568099993280120e-01,-7.882021913026859838e-02,1.188015740013957267e+00,-1.072816878224838316e-01,2.024960279777031080e-01,2.221386830935119516e-01,1.639937182715186237e-01,-1.759025950696946616e-01,8.899684521765429410e-04,-7.034901160255008223e-02,1.254100506150324978e+00,-4.660569948389731848e-02,3.830367652383611099e-01,9.419243872494013903e-02,-3.407886033431551526e-02,-1.428476615867823596e-01,-1.654673003788607322e-01,-2.469574304232529383e-01,2.510124575758346799e-01,-1.084570151470558297e-01,-1.188792013689933674e-01,-8.285893042372105555e-02,1.159770471291632354e-01,2.847300901204881038e-02,-3.027800147964264665e-01,-1.391764652390653778e-01,-7.603399474355979626e-01,-1.489680674563254592e-01,4.139063612318759078e-01,1.480250330884660404e-01,1.891516601228745986e-01,3.430801664423521191e-01,-2.231887950996612469e-01,-6.446220444771892655e-02,1.180052787515484258e+00,3.397227679290396041e-01,-3.429387826820757268e-01,-5.516359565357401573e-01,-2.789171406755045490e-01,7.383257173891910607e-01,-7.064108668235723476e-01,1.639305637295069396e+00,2.050843119946083593e-01,-1.707899493728196050e-01,-1.907682479914376839e-01,-5.447097844509402043e-02,-7.079806063185457854e-02,-1.679762852645174220e+00,4.314471511039524310e-01,3.257543323633693699e-01,1.393066849497551773e-01,4.590630273644065173e-01,1.140690373944759500e-01,7.245267251129330344e-01
6.163878847622219492e-01,9.564812016291866781e-02,-9.918330343003030000e-03,-7.329770765555286560e-02,-6.732646175163434221e-02,2.677379013101318771e-03,-1.667354624979163091e+00,3.102343587283967405e-02,2.558487630725065909e-01,-1.389064461464340483e-01,-2.618903027959215146e-01,-1.264927683773133145e-02,-3.815808730166375118e-01,-6.904533730720702200e-02,1.103175565740935227e+00,-1.565796361877263287e-01,1.876327927194701428e-01,1.402372844064109780e-01,-9.287355273227358710e-02,2.644602315094532821e-02,-5.591522092278042866e-01,-2.234437290160247169e-01,-2.969413180490365067e-01,-1.264165665146732842e-01,2.870179359329979030e-01,-6.808069539951132343e-02,-1.833367764623523299e-01,-2.025025298989778788e-01,-3.931998601097448920e-01,-1.223238612073592885e-01,8.835010896424292381e-01,-2.276350332547090460e-01,3.647524539199664129e-01,1.169939725237680306e-01,2.024222710888975429e-01,-2.019980751538449082e-01,-1.617388452307858548e-01,-2.286296810203429231e-01,-2.819827088726877262e-01,1.145304515633958076e-01,1.093909884573895930e-01,-6.562181115573993695e-02,1.775196882243619823e-01,-6.258396804899563071e-02,-5.107862306817639864e-01,2.321678573444357213e-02,1.785521761648498629e+00,-7.317077549508466117e-02,-9.997304359379531602e-02,-3.997934563248863871e-01,-2.077640635364941812e-01,-4.402698288010235550e-01,-6.509729301545761349e-01,-1.833823180370434403e-01,-3.902387884102324622e-01,-4.439514120380391171e-01,3.290920912144690985e-02,-3.922256040905515162e-01,-2.046221172609050121e-01,-9.600688917078914475e-02,-6.103524784356824107e-01,-1.594592244688296523e-01,5.566834351339701170e-01,-3.129154770070798341e-01,-2.537894206256953167e-01,-1.985445588786199367e-01,-4.030443058240875676e-01,-1.065324691793186063e-01,-4.156090310968428292e-01,-7.277721823296276482e-02,-2.269773183678891193e-01,-2.211746191383792137e-01,-1.862767817724525141e-02,2.032271899743025301e-02,-2.968051645811300432e-01,1.349619132004939992e+00,1.532958465007187299e-01,9.651798319171643603e-02,4.733312127028054678e-02,5.024709092038657232e-01,4.002135724359526248e-01,4.975689642626679454e-01
-3.779316093011075850e-01,-6.759651042041845415e-01,-3.111369763728853710e-02,-1.875184387100742589e-01,1.716595211141237060e-02,-1.169846327518588719e-01,-1.110787146195830744e+00,-2.254107058128820840e-01,-5.400393003089469790e-01,-4.812540032105022680e-01,-6.711431434848470767e-02,-7.871612857672710684e-02,8.656542360460969809e-02,-3.016429279555118970e-02,1.385203503921012880e+00,-1.966031258708475782e-01,-4.655843249187436861e-01,-3.727611674564360045e-01,1.193644671240327582e-01,-3.416530509023336937e-02,1.982455320545420396e-01,-9.692783510178576423e-02,9.508225986708105371e-01,-3.771252323478115932e-03,-5.648022716901341944e-01,-5.377867238330193977e-01,-8.707526096211012923e-02,5.573802006883316063e-02,-9.982795020760274612e-03,-4.261045180795035824e-03,1.557125684695566337e+00,-1.705121708392239033e-01,-1.851925744280843722e-01,-2.776254319754617450e-01,1.213718056661316699e-02,2.825737570079424610e-01,1.358915975319115454e-01,-2.243595448316122731e-01,-3.347586866217118762e-01,-1.093002764395564347e-01,-5.301987850563957272e-01,-5.573739533805588398e-01,-1.930614820870945880e-01,2.859317146530431300e-02,-1.128380432212680584e-01,-2.494796854561361354e-01,1.890664562620399114e-01,-2.389665036145088572e-01,-5.272636960814220952e-01,-7.042910012272364240e-01,5.086673175691542453e-02,4.981727915995333156e-01,-1.304107606893599169e-01,-7.094069651644627217e-02,-1.249832254272883025e+00,-5.287332689545869852e-02,-3.306244306254491616e-01,-6.460693376583017677e-01,1.410275734583597146e-02,-1.705468809652320797e-02,-1.585228696716952379e-01,-1.932049744855997286e-02,1.525074482117524832e+00,-1.102704656299500624e-01,-2.134187273553806441e-01,4.048426767966250006e-01,-4.752567609796377185e-02,1.748963856215870194e-01,1.572490076727315611e-01,5.421124503483781831e-01,-3.595069977352908230e-01,-3.386630336878752590e-01,-2.342496847513854397e-01,3.560485745551333729e-03,-2.364501031111441443e-01,-5.562596356992558499e-01,2.085349173075891072e-01,3.827573603837625682e-01,-7.358645445682850117e-02,-8.450180724879999827e-01,4.290423839230378400e-02,3.612601243925201433e-01
1.750332284142663286e-01,-4.564192513818900454e-01,1.116502040842726612e-01,-1.931089590239534748e-01,-1.698404287862254891e-01,-3.043828450233617700e-01,-2.676658710156458731e-01,-9.012150350527328713e-02,-2.534200055760194026e-01,-4.129285964044318025e-01,1.854281003323723573e-02,-3.775831180182907983e-03,-2.535625063427138781e-01,-2.105925638211579298e-01,2.548727434677804382e-01,-3.596374929184763952e-02,-4.197433657188867073e-01,-4.036511763709288991e-01,5.556869483502858281e-02,-6.737825014997485262e-02,-3.187529312003078430e-01,-9.159765563991408011e-02,9.788193137214177275e-01,-1.140676866555092178e-01,-3.009336655174444375e-01,-5.735204416928006976e-01,-7.527414328546080946e-02,5.671917392576029948e-02,-1.840077024743499989e-01,-1.769508931020354892e-01,6.109257334415606477e-01,-8.699640468806239813e-02,-2.104863026813430238e-01,-2.050280503374581342e-01,2.131233322041209133e-01,-6.754771619210096778e-02,5.080727114498007069e-02,-2.073698662509589341e-01,4.282866064834030539e-01,-3.182653448781697786e-02,-2.670490050046410158e-01,-3.238177645842126307e-01,5.943717732666886633e-02,-6.384552476681323863e-02,-1.662670801223481432e-01,-2.650777647826924599e-01,6.969942806675606325e-04,-7.666108190953578594e-02,-6.585937483261773417e-01,-7.920942437348941212e-01,-1.561088021889334154e-01,4.319696146553104188e-01,-2.505669883476319137e-01,-2.468973702512946289e-01,5.756256988100710154e-03,-2.993896945558577882e-01,-4.415221815427506913e-01,-5.480696613828800468e-01,4.009979673993872840e-02,1.045452780045023344e-01,-2.990753008368284283e-01,-2.474046863588515166e-01,-1.985525915799100094e-01,-1.835175463150990616e-01,-4.106778051582161693e-01,1.642625022524653033e-01,-1.310320709293361363e-01,3.494201931482982526e-01,-6.982399657406770932e-02,6.511278495418931778e-01,-2.224613462228984886e-02,-5.536795246632449791e-02,-1.386612370780399839e-01,6.216442256730381893e-02,-1.558921715721263979e-01,-1.371961536987930330e+00,7.906998822837327245e-02,7.225887874076339923e-01,2.141001184926250855e-01,-5.641969643561189907e-01,-1.318557932900278618e-01,7.742054938772318096e-01
-3.154657568026827952e-01,-3.907415121087348675e-01,-7.557886233291404299e-01,-7.321418984737010360e-01,-5.465796097127759712e-01,-1.070948032409523576e-01,-1.165707216857603035e+00,-9.168618231452627665e-01,-2.863790074134512156e-02,1.622467032617151694e-01,6.001640323992409876e-01,2.471441924624872555e-01,-5.200072438355549664e-01,-8.277580257817258869e-02,-1.287338353241680222e+00,2.247747640188144103e-01,1.046890302210904400e-01,1.451426359652147578e-02,-5.194285604100017384e-01,-3.664168915362271961e-01,-4.332416496875222678e-01,-2.237478552982245794e-01,2.364211050902898237e-01,-4.323223426658037161e-01,-4.749409253651030172e-01,-4.626730309273200392e-01,-5.937218999054131308e-01,-6.069090992437833343e-01,-5.273241608998842089e-01,-1.049847347004201764e-01,1.211454236850720623e+00,-8.194744304482611819e-01,3.639058860184800626e-01,-2.287335120228914387e-02,6.493795671807332803e-02,-5.662783513955967907e-01,-4.998227020263769638e-01,-1.092962978910807931e-01,1.193511134009367147e+00,-3.928317268481446578e-01,-6.021938439174511631e-02,4.008204898146380639e-03,-2.693919122195577165e-01,-6.976620342303834210e-01,-4.875883347974406812e-01,-1.079833279786724942e-01,1.202466802542484059e+00,-6.479803336883654952e-01,-1.924808589874256459e-01,2.267115308609848889e-02,-3.816267637603262819e-01,-7.817470102723118597e-01,-5.380579193799408522e-01,-1.027771560515573362e-01,1.195835357757567774e+00,-7.674882808828090708e-01,-4.951825809506321674e-01,-4.472881198567908445e-01,-6.031848368191509158e-01,-6.374070044160333737e-01,-5.328695528101111689e-01,-1.023932777429493041e-01,-1.222238439541186272e+00,-8.430786911310950149e-01,3.996342726938230672e-01,8.513275805779316752e-01,1.487555966309097810e+00,1.115435070488672631e+00,9.389228318640260307e-01,9.510636704668433417e-02,-4.571266768358243637e-01,1.262493975423631953e-01,-4.217254406285345092e-01,-5.664670592719633913e-01,-1.290613353725387213e-01,1.018471426444297473e-01,-9.234365832516922001e-01,-1.258820525138830471e+00,-7.591572329179383516e-01,-1.249869128703816612e-01,-3.847334717208383825e-01,2.338818187482447353e-01
2.721323294710688567e-01,2.869791567506453922e-01,6.224672536459470162e-01,9.807266278221077327e-01,4.670908914395253270e-02,-2.589297655695715905e-01,-1.325162418037562073e-01,7.726673114004906084e-01,8.495876368490483388e-02,-2.243477493204955320e-02,2.576360358228491076e-01,9.193904820700545821e-01,5.970922964298002594e-02,-2.496319661089994590e-01,-1.703570250822154519e-01,7.310549345835888335e-01,3.007055745537172697e-01,4.669123817806459242e-01,1.626970521653418267e+00,2.376896866087576221e+00,5.695796465477652726e-01,-1.899380110101862584e-01,-3.315868230511122561e-01,2.469493331562684801e+00,1.991184080106732646e-01,2.151528441084092358e-01,-1.097358856597081822e-02,-3.356561802326888944e-01,-3.958054556560413120e-03,-2.551749296908104592e-01,1.944395503017523341e-01,-2.121111129139152396e-01,-1.537196070251054258e-01,-3.699908944323763993e-02,7.616419318631093005e-02,4.771129188283520506e-01,8.665320420141137125e-02,-2.558278367099205419e-01,-7.823166927406054183e-02,3.405470687602461521e-01,1.224861698538062954e-01,-3.125686891298531250e-02,-7.675404763334765790e-02,-1.107276469191804946e-01,-6.920865017875970672e-03,-2.732273318550877406e-01,1.132209176983253185e-01,-6.753855603239446170e-02,7.005133224020809735e-02,1.421859941303599828e-01,2.567000080918249716e-01,4.936669013787734484e-01,2.094579466640806784e-02,-2.606665264325592202e-01,1.419989451825261206e-01,3.385300919145039500e-01,1.475469418966240120e-01,1.888976292452740902e-01,3.363713847446412036e-03,-3.219444735044044714e-01,-5.263803882844603904e-03,-2.537364372145562430e-01,-1.997831163481973704e-01,-1.837623924929246977e-01,-2.195466600303287719e-01,-4.883385834260096647e-01,-5.627680452359177243e-01,-3.587842683998636040e-01,-8.312010418947997359e-02,7.765779639534023948e-01,1.296754952879320966e-01,-9.460205529481370557e-02,-1.599793355130789407e-01,-7.439232318267109401e-01,-4.757626026097949712e-01,-1.412866929626787282e+00,2.154951957440287558e-01,3.171024565458308020e-01,-8.117018880142920501e-02,-1.307153437254688688e+00,2.326494468144606198e-02,9.530643168664907350e-01
-4.118223807660316149e-01,-6.448177762743015906e-01,-2.635704368996563685e-01,1.734367348458447367e-01,-6.457428823042512533e-01,-2.345205816180140068e-01,-3.350322529051588116e-01,-3.361289627262071811e-01,-2.156243733157257592e-01,-8.699132172772887639e-01,-3.760706360340116405e-01,2.686851756263261559e-01,-6.422094772873557789e-01,-2.473065435437258874e-01,-2.338502336780962643e-01,-4.258662168289862882e-01,5.362853420647332170e-01,1.074045078286125776e-01,7.417619737273110081e-01,1.016402172735491050e+00,3.319677806954489494e-04,-1.682391333086578900e-01,3.951423050578787843e-01,9.546612964952518876e-01,-7.220291568647094760e-01,-8.081279724314016644e-01,-6.628651449060004586e-01,-4.183675120068834352e-01,-6.971987075551963065e-01,-2.486009896811776365e-01,3.064197681747705126e-01,-7.700004129556605736e-01,-2.094374489498410929e-01,-6.820097647623535320e-01,-3.419000037610694931e-01,2.213209001736294035e-01,-6.355673028202681873e-01,-2.102015290741552633e-01,5.026653111777185101e-01,-3.528953656571039432e-01,-4.680016481488545876e-01,-8.674325396783216791e-01,-5.171098904225835957e-01,-4.946776031566207932e-01,-6.769368753042912523e-01,-2.340261180469891122e-01,4.149561325632895592e-01,-8.353387218620862420e-01,-6.845345196022547540e-01,-9.114825808133902862e-01,-3.462281242012922311e-01,-1.318792713358958868e-01,-6.622479173251087925e-01,-2.404024680758244936e-01,3.269865567918811000e-01,-6.641029529002987486e-01,-7.089024750284166343e-01,-8.236762033976227082e-01,-6.619132860767894533e-01,-3.969745544349499999e-01,-7.008629289407894980e-01,-2.482353684817978079e-01,-3.042294873254139387e-01,-7.664070538398756183e-01,1.699364224636926435e-01,-5.570759374584479534e-02,-6.117568494383290173e-02,-7.455901680074346338e-02,2.552352147263970972e-01,-8.168693480879186675e-01,-2.447163259360175258e-01,-7.696814639007126813e-01,-3.731390304603885433e-01,-1.226432721004080850e+00,-7.487894157346537405e-01,-7.904106316849985880e-01,-3.509095708281608217e-01,-1.795918001475534376e-01,-8.214772898995416073e-01,-5.443914658354011005e-01,-7.334597992793279175e-01,-3.934297844256899324e-01
-1.046259343386287538e-01,-3.537337632688314359e-01,-4.146156018150546907e-01,-1.096359988479549852e+00,-3.233329742141582419e-01,-2.022385361418330488e-02,-1.702144755767340589e+00,-9.369153681579428516e-01,-4.893426953420906833e-02,-1.362703592225235627e-01,-4.698107773658074526e-01,-9.046385791759943285e-01,-3.217359524636853041e-01,-1.734016624250583850e-03,-1.770520045747559168e+00,-9.759589211973412892e-01,-2.492900557127384342e-01,2.139868831636146385e-01,-1.326642767737166717e-01,-4.108481517497634683e-01,9.216661280206438212e-02,-1.122850758760300660e-01,7.951648400324956567e-01,-3.892262878467068199e-01,-1.360486451030099020e-01,-3.704655565769949255e-01,-3.026676983671223176e-01,-1.040877339047819206e+00,-3.772443443187073475e-01,-2.991861123647640217e-02,1.689324230220505152e+00,-8.779382226708428716e-01,-5.779292410646030831e-02,-3.133407348999560638e-01,-2.383008797135003076e-01,-8.327889003826876024e-01,-3.663724307074836539e-01,-1.448987388369157511e-02,1.799819795772476860e+00,-8.171792704367473181e-01,8.419363388572356777e-02,-2.762763438666345217e-01,-2.631118456196376854e-01,-1.033862140924818096e+00,-3.616292579433359466e-01,-4.429504135359128847e-02,1.605543108289224863e+00,-8.740015868610583327e-01,-4.042702970022943321e-02,-2.164684237244100251e-01,-4.889392014019906529e-01,-9.550908062238806506e-01,-3.598691458075180538e-01,-1.967758424198948891e-02,1.717326057048302435e+00,-8.943232217001532147e-01,-1.146370560127571575e-01,-3.668160326673741700e-01,-2.766232564427807961e-01,-1.021193759845155924e+00,-3.727496593036701000e-01,-2.614996215974994820e-02,-1.703841225075553023e+00,-8.558184453882639042e-01,-4.761971579371060068e-03,4.054325759553675801e-01,1.018723847016328732e-01,5.741586057197063386e-01,1.927017271506399065e-01,-8.593158343456788750e-02,1.916948842025122113e-01,-1.029279061689268755e-02,-1.599123229004413005e-01,-9.804026392366678166e-01,-1.792212522471140212e-01,-2.777207450686857704e-01,-2.815292281882536898e-02,-4.633135845803459940e-01,6.317978795266915824e-03,-1.141093413099230292e+00,-3.685282288294636777e-01,1.361211494755238671e-01
-1.927174624808349335e-01,-2.447698865879596730e-01,-7.593996940755769476e-01,-1.226052533924243182e+00,-3.258248973280297722e-01,-3.372523810810577893e-02,1.506085166617239013e+00,-1.114769669731029200e+00,2.243688975143649511e-01,-4.641138180909815114e-01,5.346461909833085668e-01,3.666578766420429125e-01,-2.653710911278328033e-01,-6.013462630134779052e-02,1.365086656352218819e+00,1.466289149246093604e-01,2.718022201524490644e-02,-2.273165827342533626e-02,-5.563746327883858367e-01,-7.708412432197684350e-01,-2.112219308887730851e-01,-1.082428871369846973e-01,-9.503716536306868745e-01,-7.964214294049797305e-01,-3.114544636955116075e-01,-3.721319977753631547e-01,-6.040353684034327486e-01,-9.286894585095760712e-01,-3.179458730380838594e-01,-3.967225512362020784e-02,-1.456463873347297433e+00,-9.189236819986278393e-01,1.521738007546589999e-01,-3.463473569704626498e-01,-5.349240743844229096e-01,-9.500261724788219286e-01,-2.895602353044715582e-01,-5.337428617430313438e-02,-1.433839643531109598e+00,-8.079412604595821445e-01,-5.272042550215529089e-02,-4.486129392249670889e-01,-4.946632542177474279e-01,-9.834240524886491697e-01,-3.233593600267254953e-01,-3.957311571370587810e-02,-1.489080296949556681e+00,-8.890662801670958792e-01,-4.282674086511146228e-01,-4.519643500399980751e-01,-7.734228701668788286e-01,-1.131382674863656845e+00,-3.247387674355079468e-01,-4.627212087710515231e-02,-1.436002974899134976e+00,-1.094412714442943191e+00,-3.407671325591258848e-01,-3.859872695483465010e-01,-6.452935508886951110e-01,-9.594709138132234694e-01,-3.185107944530420898e-01,-4.235633747072034549e-02,1.444703014867374957e+00,-9.584262462207746580e-01,3.187207401963221831e-01,-2.102465311328925723e-01,1.398978925277750696e+00,2.278249528504942667e+00,4.516478640723477489e-01,-5.611036635453365840e-01,-1.790913646467249820e-01,-3.353853642656065004e-01,-6.993173791468960954e-02,-6.808060303150191839e-01,-4.530834136125891365e-01,2.291873810364894459e-01,-1.141775249695940186e-01,-7.708093784729262710e-02,-3.561312891402350078e-01,-5.007810944460673319e-01,-2.201458868669491920e-01,2.825484489999366411e-01
5.512335994918025062e-01,2.050951873882655707e-01,6.911411684325408089e-01,1.253443428179890518e+00,6.219606959306817062e-02,2.999370558624308430e-02,1.921755356060362407e+00,9.031566627597783503e-01,2.927948673320195372e-01,8.661959491262867517e-02,2.611922059818622133e-01,2.600297116806772335e-01,1.135888813914875117e-01,2.348320004752023349e-02,1.940197806924412127e+00,2.507083171905468699e-01,2.608049500811503996e-01,6.451905607828890554e-01,1.129352346384725619e-01,-7.723625818710526669e-01,3.451772516329481011e-01,-6.012231484490307420e-02,-1.225314504085764034e+00,-4.251999172691636186e-01,4.198298557117745022e-01,1.068016366893158459e-01,9.071003350581459124e-01,1.765098939999567795e+00,2.560944211815386479e-02,2.219483423785968343e-02,-1.868624840115962860e+00,1.172414804509661845e+00,4.579250981891495043e-01,2.012176555082376694e-01,8.003047631616670987e-01,1.184828333827855351e+00,2.808364884629954358e-02,3.093544769312607176e-02,-1.999570698277520986e+00,8.378624146328227384e-01,1.931182377240666659e-01,1.417725291386860986e-01,6.840494759182621509e-01,1.619207430908952583e+00,2.878022113749133248e-02,2.768904173828796653e-02,-1.919661367027482246e+00,1.038474132113573534e+00,2.463591755130807304e-01,6.893411213773009694e-02,5.995322280105506163e-01,1.415900949839300038e+00,7.110925531505746244e-02,2.870970942426299966e-02,-1.928518372171341255e+00,8.795319001679783311e-01,4.083905558488218346e-01,9.643257881213855576e-02,9.053272984082278985e-01,1.803658632900950742e+00,3.355828917643680076e-02,2.246582745875971149e-02,1.876821954046646201e+00,1.173222127730691344e+00,-4.456756757592483797e-01,-3.499197829453463138e-01,-6.241769191243046189e-01,-9.913425689655536166e-01,-1.712712421797391582e-01,-3.325615569425348084e-01,-2.515345258606946910e-01,-2.044317475443050564e-02,7.684067260367977159e-02,1.165861322307471859e+00,1.234045372461850254e-01,2.133571812427122877e-02,4.594577868723309089e-01,2.773038474468315084e-01,9.745630373347275999e-01,1.316823757849586718e+00,6.869744024280506622e-02,1.531645538253308958e-01
-3.775342176334749444e-01,-3.345187955745612673e-01,4.986845187065103713e-01,5.987885404432675696e-01,-3.486048790675214115e-01,-2.634581324198642660e-01,-1.503935656148049638e-01,2.088632151187499175e-01,2.567563307522110344e-02,-3.330876518120631236e-01,-2.236246597865224339e-01,-4.300851595659107574e-01,-3.556822053174117371e-01,-2.574211118434269197e-01,-1.700863961783468103e-01,-5.756015133328605815e-01,1.287250806959751026e-01,3.893600570951123441e-01,3.841890575687082476e-01,-6.641846204808751208e-01,1.570982824854948445e-01,-2.442277627420662844e-01,-1.023935133575934603e-01,-4.680160699749493780e-01,-4.486497464080194675e-01,-4.412293712683792446e-01,3.495676584262237263e-01,1.003668847785425422e+00,-3.892100359181860925e-01,-2.713979537980197865e-01,1.521853030833147657e-01,4.368776269229659448e-01,-1.750395265480155782e-01,-3.134313530808472970e-01,2.301723593142866175e-01,5.438800030416143239e-01,-3.463951232944632586e-01,-2.688440976079898848e-01,-1.761570844803296565e-02,4.415799297308048432e-02,-7.080486774091468427e-02,-3.324868259822771344e-01,4.324133458564374255e-01,8.736882873006733830e-01,-3.890529614235040401e-01,-2.638641862535588412e-01,2.256377353725276536e-01,2.582341484817199384e-01,-2.419947118987431645e-01,-3.716037390806208873e-01,3.166912141549756976e-01,5.588217531375822000e-01,-3.661803870641980319e-01,-2.535902549749325385e-01,2.328992290995189340e-01,1.051603836335915088e-01,-3.979291015277562349e-01,-4.301344334512923751e-01,3.536285408605609470e-01,1.003232259639973201e+00,-3.864244693796747843e-01,-2.695163719271547742e-01,-1.588673114350795390e-01,4.121953853198060402e-01,3.271232429123615559e-01,4.494066672820720004e-02,-8.081055682536510965e-01,-1.034307918067718379e+00,-4.281083605644336182e-02,5.872833679374724891e-01,1.566223982610852883e-01,-1.687402714274723325e-01,3.588396378578769252e-01,8.873418805204471571e-01,-3.622500546731540205e-01,9.783405144127420572e-01,-2.916285408071764840e-01,-1.862842902547877100e-01,4.316629875562776886e-01,1.188729246805727779e+00,-2.455681394727410594e-01,-2.238021180331082771e+00
-3.017314463343011011e-01,-5.106037887649367280e-01,2.713152795348954260e-01,1.039136652380383996e+00,-6.174953407940374506e-01,-2.270664851013378394e-01,-4.289288041021294129e-01,3.395832374341079540e-01,-2.005791016329189214e-01,-6.425056125191497269e-01,-7.652587994679591055e-02,1.092909723839651903e+00,-5.922022006024675322e-01,-2.239734057964725966e-01,-4.267884855542119493e-01,2.814409371540174676e-01,8.614813927568246155e-02,3.180448379390608815e-02,1.423317469126203161e+00,2.435215751290026098e+00,-2.067083981494036715e-01,-1.570572073732796337e-01,5.868814334374634623e-01,2.303626859912858649e+00,-4.766613759485670010e-01,-5.247976382999151035e-01,-5.126796741115245970e-01,-5.358707102097277630e-01,-6.728676892909080109e-01,-2.455896698714207793e-01,3.522956968939591760e-01,-8.133603559239799274e-01,-4.086282181641932576e-01,-4.667336807161941992e-01,-2.784930211761191821e-01,6.707429057691843832e-01,-6.265206408610966005e-01,-1.999458481109610275e-01,6.209568424116125307e-01,-1.917932305197582732e-01,-3.427149823406434037e-01,-6.841606268745068498e-01,-3.631022411335230737e-01,7.111298295913882905e-02,-6.745364045025085131e-01,-2.209028989373574559e-01,5.424663355909840057e-01,-5.789562295937862313e-01,-5.035398175765398721e-01,-7.247194001476798819e-01,-9.690140903927944860e-02,6.613449623371169261e-01,-6.555583883996798367e-01,-2.161625578397559921e-01,5.265718204729966656e-01,-1.734943249038102819e-01,-4.605569223277997670e-01,-5.236046488165575497e-01,-4.356850415368065943e-01,-4.990106218485095280e-01,-6.704318764297528821e-01,-2.421528684569160261e-01,-3.725865129696709910e-01,-7.773936512148844624e-01,1.602077558107855570e-01,-1.349657065238333842e-01,-4.643699488130687003e-01,-2.791983940984139601e-01,4.280818474841983079e-01,-6.959947258368325007e-02,5.515100762401715234e-02,-8.092931572835060372e-01,-1.641100270151424345e-01,-5.771810564931728615e-01,-6.544920862873278011e-01,-5.702218132235575832e-01,-2.355455152284401388e-01,1.741587347355020021e-01,-5.787430768804026071e-01,-2.116203276170560699e+00,-2.914335493830172430e-01,-1.502741289798966928e+00
-7.439635430942013183e-01,-7.408921001250166061e-01,-6.482535925586204728e-01,-9.561552518084950325e-01,-5.810942404676829875e-01,-2.660582983891855435e-01,4.923905745250001589e-03,-1.048731502526853321e+00,1.298115150715225263e-01,-5.909704223991500971e-01,-1.322246406420659326e-01,-9.703265150599897915e-01,-5.614717170729602858e-01,-2.672996014278760102e-01,5.173114269991158087e-02,-9.703989476731039732e-01,-1.242402053186274363e-01,-5.707418135417664518e-01,-4.181178353745317877e-01,-4.747248346387391016e-01,-2.021524639798567002e-01,-1.943818976039294877e-01,2.227970468732995146e-01,-5.483128345493893940e-01,-5.693293097879073006e-01,-5.817978016438805078e-01,-5.256563891881993467e-01,-8.009848872818129406e-01,-5.546773220874470223e-01,-2.670386148095619805e-01,-6.334532963730399660e-03,-9.285897637063499355e-01,-3.221554921219703105e-01,-6.483366439139647275e-01,-3.988281788074332090e-01,-8.634153436122373737e-01,-5.374101689614341204e-01,-2.570762627920374910e-01,1.786787710073245161e-01,-9.589292998452714212e-01,-7.739349178389427764e-02,-4.746004288157759099e-01,-3.076125902896726938e-01,-7.876216081536934199e-01,-5.306133674538638934e-01,-2.581836344725042531e-01,-1.025255882913068961e-01,-8.181387240408691808e-01,-3.540617995750661162e-01,-6.480495809514238426e-01,-4.534831075810768497e-01,-1.029846739860157623e+00,-5.769161400141975538e-01,-2.586087230206333132e-01,-7.145702283333270344e-02,-9.945317261996555747e-01,-5.193299839297855769e-01,-6.032528556853530288e-01,-4.672875701420632910e-01,-8.191755473787232233e-01,-5.608453791189863535e-01,-2.644284059270538001e-01,3.097515794641815534e-02,-9.320619596130147455e-01,9.330404981481413840e-01,5.388597497510890788e-01,7.205657371030421698e-01,2.174925803508372946e-01,6.771232309681860517e-01,-5.827793133655011920e-02,2.763051554482498506e-01,3.921041949843901420e-01,3.034353474138466039e-02,-3.083159786838087779e-01,-7.576970965017278126e-02,2.959793000667299001e-01,-2.402143227755478283e-01,-1.001857613431686167e-01,-3.382367587716603174e-01,-1.951202308653355588e-01,1.013952246819792569e-01,-4.902051767184819608e-01
-7.231483850963711657e-02,-1.498375604955376472e-01,-5.188283637754949051e-01,-7.426885612430498274e-01,-2.801383751124698063e-01,-2.628219260665799473e-01,4.037157521739373478e-02,-6.624803964326712036e-01,2.256028222137774208e-01,3.444348271730795497e-01,-4.486308458465805282e-01,-6.765465521548001959e-01,-2.919496860069690780e-01,-2.434509752867357046e-01,2.124110429593461524e-01,-5.390929922014533471e-01,-1.122598425694458363e-01,-6.877193936587351619e-02,-4.633425590882107037e-01,-3.865759442949866509e-01,-3.829348134850045215e-01,-2.571819007387570188e-01,-2.678866414037787795e-03,-5.109213503794670652e-01,-1.869927581576887043e-01,-2.437200147432638520e-01,-5.282266208868869883e-01,-6.783678946517996966e-01,-2.617170415861216348e-01,-2.581487311314588640e-01,-6.362976645286302912e-02,-6.072995415113993101e-01,-3.307293010671550487e-02,2.199825484736169998e-02,-3.976432470382310069e-01,-5.669178722071585019e-01,-2.336903890373364101e-01,-2.525597333959545554e-01,-1.310824935266373670e-01,-4.158788011459745859e-01,1.162047120049828769e-01,6.923087520167538200e-02,-4.225775230194858678e-01,-5.344473107185863103e-01,-2.550402647092692154e-01,-2.727290103271706734e-01,-5.282858501526903859e-03,-4.380948295445655782e-01,2.314284423467203311e-01,1.669367215158962803e-01,-3.265806136481135824e-01,-6.596814783233809765e-01,-2.833828793566816051e-01,-2.672491350891000872e-01,-2.204586559648169519e-02,-4.286751656400267785e-01,-1.565098678604516513e-01,-1.978091774590531871e-01,-5.125643340862217068e-01,-6.738504982114059683e-01,-2.643195953155838551e-01,-2.607986632624254564e-01,5.375630708513869094e-02,-5.919408391174714179e-01,3.939461727325541118e-01,8.387880479876128614e-01,3.138037202679322957e-01,2.553490905600704353e-01,5.255416008572876274e-01,1.841048277673762890e+00,1.759598831313273493e-01,1.224071553953033770e-01,-1.858200003501568609e-01,-2.233924693788884031e-01,-3.893307783194238647e-01,-1.671725939858214272e+00,-6.348131330173676368e-01,-8.006908617209487211e-01,-7.954041872406720781e-01,-5.784900689925829287e-01,-7.259814885642166260e-01,1.094455606301080852e+00
4.976060119883690680e-01,2.608276744260166202e-01,2.065193382678796041e-01,-4.218319037715382441e-02,2.236679661134074737e-01,-1.767075619955473242e-01,4.891947518387781413e-01,1.624215374429342496e-01,2.391680233666328148e-01,5.452497419445356819e-01,-5.842598557013829741e-02,2.109538797894285334e-01,2.350918366953917149e-01,-1.655414545653331460e-01,5.962492655231828032e-01,3.891887243201769264e-01,-4.439083920884939055e-02,-3.929069780542383539e-01,4.911584080752370296e-01,8.810799543889858976e-01,-6.740960690491103191e-02,-1.434869911359773209e-01,-6.475835276752718306e-01,7.685312443651016734e-01,4.199502900534283212e-01,3.578048685718519528e-01,1.860814684038712002e-02,-5.945473401929648460e-01,1.880508643905400568e-01,-1.962886446094483928e-01,-3.734975295052471722e-01,-2.219096546204057663e-01,4.221913398559015151e-01,2.889760036840247626e-01,-1.382339140941974964e-01,-4.779757953256825315e-02,2.232238189552759877e-01,-1.835940793560633388e-01,-4.820854454477887518e-01,1.453498379750694791e-01,5.091677696058808378e-01,4.018718922653934933e-01,-2.905980325566422107e-02,-4.765929164283395081e-01,2.178315070041837442e-01,-2.049509226569474762e-01,-3.491609769414747988e-01,-6.877349071264306224e-02,4.706296177032434080e-01,3.724992763342759861e-01,1.320694087779465120e-01,-2.170034310084398288e-01,2.583039982700334192e-01,-1.813064898328083929e-01,-4.707814934881607849e-01,8.471766430845976970e-02,4.119162932629025220e-01,3.486821898031706723e-01,1.239237390373120785e-02,-5.835475277557193863e-01,1.980469956181696856e-01,-1.925096729641078697e-01,4.021700248559423319e-01,-2.080820641125298298e-01,-1.766759660235253659e-01,3.489942000747886519e-01,-2.628373015736996665e-01,1.316901165232768067e-01,8.092740148433616443e-02,3.897364726935369922e-02,-1.235846514840223676e-01,2.690030564255420087e-01,1.135585525682221153e-01,-8.390401646097330746e-01,3.685040347563262736e-02,-5.056721193269609893e-01,3.918741526828825594e-02,-5.322238961447946920e-02,-1.837291699867366068e-01,-1.024073478649413449e+00,-2.128881848121924603e-01,-1.724459560860716334e-01
-1.458552182976740608e-01,-1.882690638310424436e-01,-4.985497870283207844e-02,7.889205533268102422e-02,-1.400462585407185045e-01,-5.040559545983464701e-02,1.342142676348605734e+00,-6.721836882038480232e-02,-2.853491811961266778e-01,-1.112746486060075535e-01,-3.004405473400121873e-01,-3.816007216978382910e-02,-1.696684689069496987e-01,-8.740094651804532211e-02,1.134855562345303603e+00,-2.216817049090953062e-01,-3.685013618365979432e-02,-4.494815872864416778e-02,4.940000282174226709e-01,7.242105666556458710e-01,-5.059562648428303500e-02,-1.201522186121636998e-01,-7.939467601447079970e-01,6.451321958028647385e-01,-2.577453321516697815e-01,-2.388190467137212003e-01,-3.872312069177720195e-01,-4.440898967594964497e-01,-1.300097185264694200e-01,-5.912190246179870740e-02,-1.296374576313015670e+00,-3.930835865103013971e-01,-1.896476875819978203e-01,-1.908967005350002688e-01,-8.758606769368554312e-02,8.379529627171157513e-02,-1.271189169254457185e-01,-7.969293020042914066e-02,-1.201254750441033581e+00,-2.544930003005973496e-01,8.817214374205489813e-02,-2.375271108265907261e-01,-2.175524698760463727e-01,-3.076202585492162078e-01,-1.219463986513167619e-01,-5.069657231041773543e-02,-1.360334580901891632e+00,-3.357310330622748085e-01,1.852361089042964259e-02,-1.827653346152217639e-01,3.690487565818357379e-02,-5.000571918972987473e-02,-1.510025939332420020e-01,-5.141882246773320231e-02,-1.333698557147551700e+00,-1.705583497527713710e-01,-2.740435229416156027e-01,-2.020703962060101111e-01,-3.016623129690401695e-01,-3.875755933772649930e-01,-1.305051415348476296e-01,-5.993393313543328438e-02,1.293105927357464324e+00,-3.513951513442897245e-01,-1.905751080952499399e-01,3.409517775774918019e-02,-2.541866759117447083e-01,-2.289803537337400385e-01,-1.111448605693484137e-01,-7.054761455576729068e-01,3.054348582852252636e-01,-1.131253276703010902e-01,-1.640256193132939577e-01,-6.144902367687989919e-01,1.770155114460165158e-01,4.390515903233433437e-01,-2.108578165452032194e-01,-1.050440552789217927e-02,-4.258093622175267989e-01,-6.335236791148337598e-01,1.372706143444598625e-01,9.341885276275356531e-02
4.157254994360472244e-02,-6.127981908949413359e-02,-2.071605858248715404e-01,-4.934767011103325385e-01,7.837423998524903346e-02,-2.542397282126654945e-01,4.816737456618559732e-02,-2.928592743319025637e-01,6.778154523414073318e-02,2.334391263959848806e-01,2.795653629138598606e-01,1.448755886613340149e-01,7.561935495003020702e-02,-2.645883422179262645e-01,-6.848095150351447835e-02,2.969438268010538007e-01,1.583896245620545207e-01,-5.184311614655925243e-02,2.816548249764413425e-01,5.980350286221187278e-02,-1.995406830269032955e-02,-1.461161338970480561e-01,-7.590375410316893001e-01,1.019715936384304883e-01,-7.303708893931387669e-02,-8.584766705070112636e-02,-2.423544926959058654e-01,-5.798076472103634860e-01,8.945424175696527203e-02,-2.710043512463958804e-01,8.815787722567612616e-02,-3.616453415673201999e-01,7.598321615849118471e-02,1.651832231951678165e-01,1.875482700500791799e-01,-3.378586626825520467e-01,6.123976595113221622e-02,-2.183929672259602994e-01,-3.194236573548915881e-01,-8.361447348054155959e-03,5.064725602636028362e-02,-2.616573343834404652e-01,-3.293647359114507678e-01,-6.079945764694237864e-01,5.634369938800015687e-02,-2.721112572685338571e-01,3.792764361269693185e-02,-3.611688271483556312e-01,-1.156686821814791911e-02,-2.976841694151091330e-02,-1.923057088065289466e-01,-5.199979666574091608e-01,7.091256738877434185e-02,-2.624910564320200868e-01,1.139465473085080199e-01,-3.393607274154451514e-01,-7.863760807246654438e-02,-6.972775645425512148e-02,-2.262063313883363458e-01,-5.443126824121435892e-01,8.377915023325423205e-02,-2.692144865270044152e-01,-9.521243832284831399e-02,-3.396600736151651478e-01,-1.569307009697535338e-01,1.873576515759871053e-01,3.831829240425401739e-01,6.612736321173334764e-01,-1.880055015499322857e-01,-9.557186717485737226e-01,-4.425894898364395730e-02,-7.259689574068184381e-01,-6.769235460536894289e-01,-7.151053805202615132e-01,1.396123481882931561e-01,-3.331568981202590152e+00,1.859624308287267718e-03,1.578920498629702296e-01,-4.101021948803160871e-02,-3.031243340594368951e-01,2.041159120613657563e-01,-1.093797850481929013e+00
-7.818472043293400731e-02,-3.055568404687452055e-01,-1.665995149529650166e-01,-4.716554582924442629e-01,-5.723966118375836132e-01,-4.345855685641468458e-02,1.460432891766430874e+00,-6.616700460597471078e-01,1.268431550079422016e-02,-5.613892011463704479e-02,2.114349229976983102e-01,-4.632016371951934719e-01,-5.264358821862995530e-01,-4.689304630161189591e-02,1.485730946513081019e+00,-4.061736248229968482e-01,3.200237378773860275e-01,4.037212938407404028e-01,4.387637610554630530e-01,1.887244326757625268e-01,-1.709482837992652438e-01,-1.641917660131493872e-01,-5.586211605817347214e-01,1.911483812798627779e-01,-2.872453519117588727e-01,-4.267710384215527841e-01,-3.594525591947583809e-01,-5.290414137314553011e-01,-5.757973691875420963e-01,-3.402683657341803308e-02,-1.515976663847800054e+00,-7.423829146332308060e-01,-4.458056667494348160e-03,1.962417618948676321e-02,5.046519482307412763e-02,-4.934966391204298475e-01,-5.952621818752357186e-01,-4.872155432822743854e-02,-1.481567245778305120e+00,-5.531805274926541172e-01,3.282413296273071768e-01,-1.112920144818573681e-01,-2.488837164806763924e-01,-6.079718733376680007e-01,-5.683527230134793884e-01,-5.209748325538101493e-02,-1.416972636964602739e+00,-6.288841379778282725e-01,1.764373916228228686e-02,-1.662065239576304976e-01,1.546191585088225184e-01,-2.433733449783572755e-01,-5.736465293272282606e-01,-4.416666268086238967e-02,-1.462973284907105764e+00,-3.691922930830492944e-01,-3.567171221066476883e-01,-4.642863319417141477e-01,-3.289154991446566201e-01,-5.168830121545539003e-01,-5.742007149456930248e-01,-3.336904667505616318e-02,1.525662752673847988e+00,-7.309345151212942593e-01,8.095569165021618274e-02,3.469493469786643081e-01,3.240787437667916326e-01,3.386702303976960038e-02,6.113263985452358495e-01,-3.091481543791917419e-01,3.548146339264704463e-01,-2.881405873509047533e-01,-3.613023043789148625e-01,-4.982995098372672294e-01,-2.414260560684362844e-01,2.336563457438974728e-02,-5.803912480832539300e-01,-7.481211146513722099e-01,-7.209270470245957574e-01,-7.095756722391916016e-01,-4.978651499712688500e-01,3.780092009924794771e-01
-6.204641022920749371e-01,-6.722227518133053747e-01,-6.896595761164735494e-01,-1.086353901797556670e-01,-6.428087666466524297e-01,-1.709165756335591368e-01,-7.606994622545869555e-01,-5.601086747508187136e-01,2.225376255142910986e-01,-4.439067563033674557e-01,3.725862153484758577e-01,4.252808449015013093e-01,-6.352933823243288591e-01,-1.215607696556143119e-01,-1.025015236056103340e+00,1.397517440012780998e-01,-1.460456043948845511e-02,-1.488922517705580095e-01,2.718751914444482165e-01,4.573064802416570429e-01,-2.703205469938834704e-01,-1.818914770594605712e-01,-5.675779192707932630e-01,3.424206015596372721e-01,-5.648070933521271986e-01,-7.112819814740739544e-01,-7.417356996690764870e-01,-4.092324766307836037e-01,-5.990086336875769524e-01,-1.554493295880013670e-01,9.193950780459668737e-01,-7.295048308390889025e-01,3.587118104091664983e-01,-4.679194346432547502e-01,-3.801280824574938128e-02,-9.923443036129639405e-02,-6.022976928055407964e-01,-1.812500520146952954e-01,7.158820329999093790e-01,-3.307640806694027713e-01,-1.178800719906775707e-01,-4.390418266675226722e-01,-3.080548776536943256e-01,-4.502628016546517675e-01,-5.781621713105917770e-01,-1.580581916100460282e-01,9.182240433582261607e-01,-5.970235700646445709e-01,-3.380080032238895749e-01,-5.345142803255037434e-01,-5.169933117152831770e-01,-2.277765380883202961e-01,-6.249005139348827731e-01,-1.571313731894757315e-01,8.672328159235089817e-01,-6.429903213733545453e-01,-5.884146865026392836e-01,-6.979744733794551736e-01,-7.294428195869682163e-01,-4.106018077389712029e-01,-6.075843540456928871e-01,-1.514505896402776053e-01,-9.366248304892932364e-01,-7.509715330549020518e-01,8.211230247138839866e-01,6.111733624104639384e-01,1.176132286263096294e+00,3.805489929442015251e-01,4.811410351211229397e-01,8.114411584767049490e-01,-4.843533681137201508e-01,-1.328226241864865868e-02,-3.625662417129671411e-01,-6.629973962040220936e-01,-1.891995662368809450e-01,6.520898433433258701e-01,-4.615550140627249776e-01,-6.478621047549933953e-01,-8.612976333444233301e-01,-4.359139708146254066e-01,-2.321455769737573727e-01,3.738930751374920369e-01
-7.581535798393649328e-01,-5.658449910276546202e-01,-5.018596649501949614e-01,-5.724694464930579763e-02,-2.344775753706426769e-01,-2.331531188241235675e-01,-3.563991053995719249e-01,-3.365007143743698470e-01,-3.108151663050666147e-01,-3.174697651493200157e-01,-8.436005338960179678e-01,-2.826217697285635655e-01,-2.586469871964385270e-01,-1.966429805008905185e-01,-5.477832714643020573e-01,-6.134544206452038351e-01,-4.963782781557161683e-01,-6.689608077622347659e-01,-2.272706395237089061e-01,6.953673778732081256e-01,-6.173666578074978872e-01,-2.421116802786238698e-01,6.889877787842799139e-02,3.524121681301130571e-01,-6.877957876596477726e-01,-4.957880251901223834e-01,-7.459415841341652254e-01,-5.670945017992141679e-01,-1.544391927343309878e-01,-2.380357651746768388e-01,3.635853860251964109e-01,-6.013903235672358738e-01,-4.721476360458804478e-01,-5.936469763405489708e-01,-8.105163768680693215e-01,-3.809251765470336171e-01,-2.493332553475219315e-01,-2.337136712461103105e-01,3.673163630823491621e-01,-5.264156962025793307e-01,-4.072112549972626283e-01,-3.031893611422492585e-01,-5.443786145545248534e-01,-5.852604532627576628e-01,-1.845004788585851707e-01,-2.620166946767649718e-01,2.320033578374834649e-01,-5.559066434838028092e-01,-4.460123220631970753e-01,-3.024489012463470461e-01,-5.251735447367927856e-01,-4.165385911381712658e-01,-2.085938712133579287e-01,-2.402381601728343918e-01,3.164946387226462710e-01,-4.656581553153695263e-01,-6.530502020858435230e-01,-4.558929633565118045e-01,-7.748242932155595675e-01,-5.562362569793901645e-01,-1.585794532688080405e-01,-2.358708724427374948e-01,-3.705422904788538419e-01,-5.849862256637029523e-01,6.577690521925113609e-01,5.480436359096461096e-01,-1.436686290060053273e-01,-3.028488986229289082e-01,-1.750246554609715954e-01,1.380641190876971347e+00,1.217016956057793142e-01,5.049877811725239640e-01,1.753613909905592516e-01,-5.756308061579521462e-01,4.564936103219378594e-01,-1.547959392781480981e+00,-6.242958150763490144e-01,-2.511939214183052105e-01,-9.342772957727800698e-01,-5.387253735707150382e-01,3.639850262939605674e-01,5.203251914417181823e-01
7.964710342147200972e-01,7.263380427441016307e-01,1.078097872260636247e+00,7.349208499920151239e-01,9.753261073600856257e-01,-1.833307240143701167e-01,-5.465219367257371230e-01,1.394308691490099728e+00,1.110901157371683157e+00,4.939852218391969640e-01,2.154082063633576682e-01,1.482234967645810197e-01,1.007578415885490797e+00,-1.516270610485667136e-01,-7.331809724439473097e-01,9.296690703869225914e-01,1.042948658535633122e+00,1.417478173404917552e+00,9.801824446723000905e-01,3.418495629438132455e-01,1.636974789611580494e+00,-1.330996845771407477e-01,-5.703235695518429349e-01,9.660289349684634264e-01,6.285012745058150552e-01,6.146947954495828315e-01,8.423952764382438563e-01,7.676894802184739408e-01,8.182247494237854246e-01,-1.631538793267456600e-01,7.540371191550625518e-01,1.142991905904405581e+00,9.600590685518340939e-01,8.373074936756276232e-01,8.770312374670582445e-01,6.909623738270419535e-01,9.791150551093196208e-01,-1.615758357075720852e-01,6.890826991983668437e-01,1.370398389135559114e+00,4.504893376326760679e-01,5.487829733276595734e-01,6.820510127321879335e-01,6.172111194166374215e-01,8.741879561336601823e-01,-1.739936427843855882e-01,6.710849863041860042e-01,1.165525308188361198e+00,8.822862322558422399e-01,5.979980459273889215e-01,8.070552411801172887e-01,7.355705839898305509e-01,9.463813019943190241e-01,-1.816194135925987552e-01,5.838357325415416410e-01,1.308314015828532906e+00,6.751064817043340716e-01,6.162546694087263077e-01,8.252234369354074506e-01,7.738766782009968148e-01,8.300337268813569036e-01,-1.633641577143286616e-01,-7.456360645549628963e-01,1.156937289000902425e+00,-1.155492841489874634e-01,-5.319594356691744741e-01,-9.753415269226368700e-01,-7.107720781898063667e-01,-3.493627787495245940e-01,5.573467982881440408e-01,-5.567168871816998710e-01,-2.950245830152245508e-01,-6.227246329075324105e-02,2.921739130501956883e-01,9.783886959191183397e-02,-1.718733843731765354e-01,2.577988374398311466e-02,2.166722377772989094e-01,6.260003062465931967e-01,6.759250862497835355e-01,1.158350897241642030e-01,7.663914522135018004e-01
